0.31148,0.5576,0.57873,-0.19302,0.45383,-0.54079,-0.74096,-0.22083,-0.58568,0.9336,-0.79149,-0.84522,0.68369,0.36938,0.94765,0.85413,0.36251,0.0078216,-0.9186,0.17846,0.51938,0.22495,-0.26989,-0.23465,0.65397,0.66015,-0.70792,0.27094,-0.4279,0.54265,-0.27244,-0.17464,-0.335,0.65685,0.81505,0.37512,0.67746,-0.64304,0.22259,0.13647,-0.84965,0.58017,0.78327,0.99513,-0.58912,0.2092,0.21303,0.43036,-0.88322,0.15192
-0.92858,-0.15309,-0.26469,-0.75596,-0.2523,0.87224,0.75977,0.55061,-0.3532,0.23831,-0.060482,0.80114,-0.73829,-0.11381,0.52928,-0.82446,0.42907,0.06185,-0.34128,0.8778,-0.50664,0.11123,-0.69197,0.9544,-0.21664,0.39272,-0.34739,0.78254,0.75803,0.081052,-0.0013649,0.97057,0.76112,0.99674,0.22548,-0.135,0.13531,-0.89141,-0.83532,-0.97546,-0.69154,-0.8554,0.65793,-0.23171,-0.4161,0.42701,-0.65179,0.91977,-0.029818,-0.71161
0.69826,-0.81835,-0.58794,-0.46312,0.16316,0.36638,-0.91184,-0.64126,-0.77826,-0.66931,-0.56188,0.69321,-0.62169,-0.12867,-0.51263,-0.3352,-0.080438,-0.24175,0.4187,0.791,0.35253,0.8129,-0.66996,0.87217,0.2427,-0.33293,-0.94243,-0.56743,0.87309,-0.33692,0.62705,-0.029482,0.051219,-0.23519,0.50068,-0.35255,0.54792,-0.50576,-0.246,0.17961,-0.50551,-0.51096,-0.2541,0.058513,-0.41831,-0.87405,0.26253,-0.61275,-0.74213,0.44245
0.86799,-0.46706,-0.82667,-0.48431,-0.76776,0.92423,0.37344,-0.78128,-0.24958,0.6524,0.84542,-0.2086,-0.69272,0.58605,0.36423,0.052362,0.83854,0.53781,0.72062,0.21245,0.51861,-0.59755,0.78673,0.78547,0.9303,0.16046,0.3891,0.36709,0.61242,0.15643,-0.53036,0.22374,-0.46532,-0.61984,0.16081,-0.90786,-0.37456,0.80363,-0.19006,-0.27957,-0.84155,-0.97859,0.53093,0.56833,0.75089,-0.63512,-0.28636,-0.84971,0.34548,-0.59983
0.35747,-0.69269,0.54387,-0.33667,-0.88469,-0.12405,0.46755,0.81032,-0.34019,0.31139,-0.35935,-0.66157,-0.9422,0.63111,-0.72429,-0.50672,0.97789,-0.43498,0.0017972,0.58476,0.17238,0.57539,0.89158,-0.11294,0.65694,-0.42432,0.91751,-0.36988,0.93817,0.70901,-0.95547,-0.97756,-0.66357,0.98478,0.98904,-0.37929,-0.78482,0.96489,0.37476,-0.94913,0.70632,-0.53492,-0.1252,-0.6756,-0.67803,0.75604,0.38214,-0.83174,0.53404,-0.44093
0.51548,-0.43799,-0.58865,-0.69553,0.95953,0.88067,-0.12566,0.7527,-0.31579,0.092905,0.71509,-0.1391,-0.98183,0.50423,0.25962,0.085799,0.8652,0.29855,0.98952,0.67234,0.64488,-0.30456,0.034935,0.50305,0.6268,-0.47206,0.45809,-0.94923,0.04847,0.28475,-0.39776,0.5371,-0.90998,0.35987,-0.66827,-0.14675,0.38916,-0.031782,-0.18997,0.95716,-0.68565,-0.49029,0.036543,0.80284,0.44562,0.57128,-0.88994,0.92212,-0.75389,0.39729
0.48626,-0.11983,-0.22346,-0.30398,-0.43035,-0.98833,-0.24032,0.99959,0.63424,-0.49734,-0.48031,-0.16756,0.1929,0.57851,0.71403,0.56174,-0.076953,0.84437,-0.14272,0.12028,0.85367,0.9443,-0.96325,0.81881,0.91019,-0.4802,0.47351,0.6405,-0.77426,-0.15979,-0.40388,0.48312,-0.65845,0.86979,0.41765,0.23114,0.4835,-0.7105,0.10893,-0.73561,0.23333,0.82438,0.12038,-0.37942,0.61113,0.87741,-0.34624,0.93048,0.43627,-0.61879
-0.21555,0.054285,0.10356,-0.75668,0.18995,0.22061,0.95931,0.72851,0.063371,-0.91969,0.75613,0.45753,0.2181,0.0025349,0.7996,0.043765,0.80984,-0.33866,-0.46531,-0.99861,0.27513,0.6721,-0.16139,-0.25336,-0.63376,0.35416,-0.65078,-0.13466,0.30047,0.091826,0.65186,-0.56531,0.85155,0.27282,-0.66659,-0.51397,-0.20614,0.023333,0.23653,0.10115,0.0569,-0.26491,-0.50899,0.35862,0.48366,-0.39958,0.22563,0.86456,0.36676,-0.15614
0.31096,-0.085151,-0.54209,0.76831,0.92432,0.60215,-0.20201,-0.92624,0.042244,-0.53325,-0.62346,-0.18705,0.83785,0.11036,-0.30326,0.8639,-0.2271,0.62688,-0.054096,-0.49745,-0.96212,0.42361,-0.75583,-0.76742,0.34086,0.039653,-0.28918,-0.82259,-0.61823,-0.6354,-0.72721,-0.20536,-0.78275,0.29741,-0.84134,0.68943,-0.30683,0.98706,-0.16508,0.72688,-0.61756,-0.92393,-0.74339,-0.081629,0.58417,0.71441,0.96565,0.37381,-0.93267,-0.58462
-0.65763,0.75074,0.28388,-0.81144,-0.62844,-0.53404,-0.11963,0.089365,0.54862,-0.27777,0.51839,0.90361,0.46715,0.2615,-0.02738,-0.70578,0.20603,0.57527,-0.67831,-0.1361,-0.63132,-0.5702,0.9037,0.050242,0.47119,-0.84649,0.1493,0.87017,0.71387,-0.52745,0.62916,-0.47487,0.6683,-0.23478,0.26815,0.76559,-0.89128,0.52514,0.68976,0.36508,0.5195,0.30166,0.22097,0.32837,0.39564,0.63545,-0.090677,-0.72341,0.85994,-0.72263
0.41209,0.036104,-0.031039,0.86008,-0.61392,0.86494,-0.68638,0.99523,-0.75947,0.26691,-0.93662,0.82397,-0.39771,-0.80402,0.35903,-0.16647,0.12064,-0.75136,-0.6822,-0.13869,-0.94652,-0.9691,-0.45964,-0.31775,0.6391,-0.88831,-0.080109,-0.21845,0.88571,-0.58917,0.72218,-0.84272,-0.69637,-0.94425,0.10296,0.85651,-0.25027,0.93205,0.10302,-0.93006,0.23,0.63273,0.22714,0.3658,0.5568,0.66082,-0.49334,0.2955,0.062625,0.62752
-0.93633,0.88725,-0.69631,-0.20196,-0.31671,0.52653,-0.34793,0.022016,0.2509,0.9722,0.28468,0.90283,-0.008851,-0.50865,0.40824,-0.43941,0.69168,-0.68522,-0.46332,0.75047,0.87,-0.57991,0.78731,0.69881,0.36204,-0.48254,0.66745,0.17586,-0.79311,-0.48063,0.10588,-0.55976,0.71175,0.18613,0.54455,0.12527,-0.26629,0.85976,0.6263,-0.1196,-0.69587,-0.8325,-0.53014,-0.51534,-0.26963,-0.1291,-0.92556,-0.18501,-0.59327,-0.34309
-0.44615,0.27542,0.56386,-0.9052,0.8658,0.6529,-0.37188,0.74702,-0.3067,-0.58569,0.13374,-0.308,-0.48367,0.23145,-0.078232,0.1962,-0.43039,-0.17,0.51424,-0.86472,-0.031065,0.072937,0.79038,-0.62754,-0.33988,-0.12015,0.63089,-0.52033,-0.40712,0.88526,-0.96294,-0.03003,0.19714,0.46261,-0.89023,-0.39403,-0.43165,-0.52702,-0.36921,-0.12035,-0.090725,-0.97704,0.71522,0.08746,0.81934,0.081169,0.12954,0.40701,0.14042,-0.038829
-0.90766,0.91539,-0.79879,-0.31525,-0.21866,0.14693,0.789,-0.85956,-0.33076,0.51417,-0.24718,-0.41951,0.46571,-0.39008,-0.27146,-0.92705,0.32664,0.37467,0.21835,-0.32019,0.58957,-0.78308,0.55106,-0.58251,-0.93062,-0.43142,-0.3521,0.30713,0.59807,0.28314,0.015643,0.030592,-0.60446,0.30625,-0.90672,0.54029,0.82878,-0.80496,0.71873,0.53222,0.3642,-0.26877,-0.76939,-0.67154,0.10631,0.82719,-0.90858,-0.55058,0.37861,-0.86602
-0.80574,-0.51859,-0.41187,0.47193,-0.45357,0.58516,-0.50595,0.97508,0.14923,0.77266,-0.5749,0.7734,-0.76648,0.53394,-0.43947,-0.87263,0.20452,0.31541,0.93387,-0.64588,-0.086329,0.70752,0.81764,0.060862,-0.75962,0.35754,-0.076631,-0.26694,-0.11657,0.65813,0.42729,0.67802,0.59506,-0.87608,0.16502,0.01444,0.32029,-0.18045,-0.56527,0.99968,-0.43748,-0.17447,0.76503,0.81318,0.71286,0.19545,0.87557,0.9912,-0.47096,-0.83591
0.64692,0.35224,-0.52525,0.58936,-0.69611,-0.34192,-0.37864,0.84543,0.72788,-0.05554,0.58431,-0.57994,0.49208,-0.46554,-0.84759,-0.35423,0.31293,0.35995,0.54664,-0.50793,-0.011581,0.8217,-0.96664,-0.83143,-0.43257,0.89916,0.34792,-0.0375,-0.014959,-0.22248,0.3955,-0.1737,0.57477,-0.69392,0.52349,0.22517,-0.14893,-0.73765,-0.76929,-0.48507,0.24973,-0.16796,-0.22218,0.14544,0.91502,-0.98626,-0.09216,-0.79723,-0.13174,-0.36508
0.38966,-0.42187,0.061745,0.089812,-0.20578,-0.55308,-0.18226,0.12852,-0.60287,-0.68217,-0.70911,-0.73825,0.61958,-0.92099,-0.11075,-0.80324,-0.38013,-0.98123,0.14573,0.45564,-0.14857,-0.33255,0.91858,-0.51846,0.67647,0.54791,0.19045,-0.19663,-0.94097,-0.66318,0.78691,-0.19565,-0.80883,0.51131,-0.62948,0.37315,0.2502,0.50913,-0.82826,0.77163,0.88346,-0.073248,-0.40036,0.69056,0.61019,-0.45532,0.73932,0.63622,0.56278,-0.37084
-0.3658,0.34362,-0.817,0.37245,-0.25056,-0.37523,0.41602,-0.13708,0.3449,0.62184,-0.021715,0.041032,0.49047,-0.40688,-0.66859,-0.65991,-0.33671,-0.74278,-0.099553,-0.42359,0.78354,-0.061714,-0.84949,0.26911,0.80271,0.27228,-0.73123,-0.3324,0.14529,0.48024,0.40237,0.90537,-0.6571,-0.0083336,0.071929,-0.83219,0.20024,-0.30379,-0.69073,-0.90056,0.13361,-0.067987,0.50583,0.9514,-0.16408,-0.72507,0.85408,0.37168,0.8467,-0.32381
0.90044,0.39028,-0.18937,0.78727,-0.73777,0.16905,-0.71272,-0.32431,0.80366,-0.046984,-0.97431,0.81093,-0.32571,0.11273,-0.2025,-0.25767,-0.62361,0.52781,-0.42589,-0.52532,0.74857,-0.99421,-0.42973,-0.77785,-0.10011,0.50716,-0.96102,-0.46483,0.14492,0.74559,0.87458,-0.3298,0.20562,-0.23126,0.14739,0.42822,0.96102,-0.10043,0.60436,-0.33669,0.38623,0.096317,-0.46966,0.59274,0.20586,0.4174,0.36304,-0.20966,-0.21192,0.30806
-0.93111,-0.86401,-0.79031,-0.89042,-0.12992,0.65983,0.74264,0.44145,-0.60169,-0.76742,-0.62678,-0.19494,0.16865,0.93815,0.84117,-0.92048,-0.79863,0.68383,0.50477,-0.72068,0.2663,-0.37818,-0.023766,0.21469,0.97707,0.49363,-0.74978,0.53569,0.48338,-0.28895,-0.97821,-0.7325,-0.3498,-0.42336,0.20988,-0.40324,0.52866,-0.60133,0.92894,0.45911,0.95717,0.065382,0.051097,0.10825,0.046122,-0.91699,-0.28551,0.7828,-0.21996,-0.15956
-0.12251,-0.49042,-0.77543,-0.39268,-0.81697,-0.41908,-0.83369,-0.97269,-0.40343,0.75144,-0.029539,-0.56848,-0.062096,0.37825,0.022669,0.41848,-0.42687,0.4939,-0.81128,-0.55854,-0.41544,-0.029556,0.94114,0.77952,-0.93242,0.17206,-0.55345,-0.51924,-0.84679,-0.64234,0.63948,0.39087,-0.46543,-0.62727,-0.91842,-0.53362,0.4378,0.47304,-0.60642,-0.0025965,0.79823,0.015385,-0.54153,0.74621,0.2166,-0.12651,0.60329,-0.23547,0.33217,0.66417
-0.23688,-0.55192,0.56886,-0.90762,0.22925,-0.19489,-0.076524,-0.25188,-0.0069595,0.27037,0.67645,-0.84252,-0.82547,0.43576,0.82828,0.28268,-0.29035,0.88905,-0.78643,0.63509,-0.41664,-0.47567,0.13623,-0.018629,0.7189,0.54611,-0.10173,0.92255,0.57433,0.99285,-0.93146,0.84555,0.5786,0.89468,-0.45975,-0.36511,0.76132,-0.59327,0.5561,0.093319,0.29696,0.56218,-0.88723,-0.46489,-0.64879,0.36071,0.15252,-0.10803,0.9093,0.74843
0.53103,0.33567,-0.41686,-0.60905,-0.97804,0.72411,-0.93922,0.84537,0.77981,-0.80544,-0.71789,0.86612,0.65743,0.11806,-0.81613,-0.65188,0.071523,0.83943,0.46979,-0.24354,-0.509,0.36622,-0.45206,-0.37298,0.057114,-0.21502,0.069063,0.8471,-0.61301,0.91826,0.032321,-0.024951,0.23323,-0.20389,-0.6421,-0.43596,-0.9787,0.53632,-0.94703,-0.55072,0.96584,-0.42007,0.65556,0.88213,0.036109,0.10348,0.36053,0.74477,0.83716,0.099386
0.5904,0.68878,0.20707,0.44033,0.14652,0.22948,0.5064,0.092959,0.0028292,0.81688,0.46443,0.20574,0.37189,0.066708,0.98607,-0.8757,0.98167,-0.55385,-0.29082,0.33103,0.4087,0.82237,-0.74183,0.52428,0.95092,0.21058,0.98078,-0.45151,0.061855,-0.68801,0.30666,0.011385,0.37293,-0.7217,0.055456,-0.49887,0.14307,-0.51744,-0.77224,-0.75404,-0.67237,0.101,-0.76837,0.98053,-0.0063484,-0.64412,0.16485,0.77006,-0.26319,-0.32397
-0.62625,-0.31108,0.92885,0.44351,0.57946,0.98238,0.40009,-0.052226,-0.44601,-0.92997,0.38213,-0.24502,-0.46535,0.75145,-0.80713,-0.18668,-0.94364,0.019534,0.16127,0.87163,0.54922,0.141,-0.68962,0.90905,0.75444,-0.50513,0.43469,-0.55344,0.84826,0.85787,0.50825,-0.99075,0.39487,0.082745,0.47015,-0.75291,0.94321,0.22747,-0.62675,-0.029576,0.019574,0.14933,0.083846,0.83474,0.69243,-0.82891,0.81812,-0.58442,0.1258,0.083966
-0.020471,0.56104,-0.13503,0.7556,-0.52927,-0.5926,-0.57098,-0.0069254,0.067916,-0.9205,-0.93101,0.32986,0.93897,-0.2138,-0.37371,-0.073874,0.41906,0.57548,-0.40229,-0.14704,0.64531,-0.46944,-0.46238,0.29177,-0.67733,-0.4196,0.96011,-0.49575,0.97211,-0.15085,-0.44001,-0.62306,0.86404,-0.93897,0.83527,0.33629,0.06726,-0.30846,0.85081,0.74808,0.2547,-0.59222,0.24937,-0.9256,0.14561,-0.62646,0.79673,0.59169,0.60078,-0.49855
-0.10883,0.35066,0.3895,0.16487,-0.10396,0.65442,0.35981,-0.38206,0.1485,0.97714,-0.022285,0.58438,-0.63245,-0.083866,0.57075,-0.59465,0.81031,0.044904,0.42736,0.21032,0.61238,0.85694,-0.13222,-0.029361,-0.29325,-0.96133,-0.89252,-0.50601,0.95059,-0.55383,0.2061,0.55928,-0.75962,0.0969,-0.9388,-0.44322,-0.87457,0.44526,0.09942,0.28285,0.6,0.11047,-0.99925,0.17196,-0.64791,-0.26247,-0.08733,0.38286,0.79663,-0.26366
0.29263,-0.98657,0.5162,-0.85863,0.13872,0.35172,0.11459,0.90168,-0.17439,0.37236,0.94278,-0.33302,-0.40012,-0.58351,0.2048,0.7391,0.73166,0.23478,-0.27903,0.93917,-0.49246,-0.87151,-0.20819,-0.12364,-0.88399,-0.30538,0.27375,-0.52085,-0.39046,-0.72721,0.77756,0.22165,0.21377,-0.20682,0.64844,-0.50486,0.12939,-0.76555,-0.93765,-0.10353,-0.16446,-0.57177,-0.67277,-0.15799,-0.74061,0.86218,-0.63566,0.24035,0.84858,0.69943
0.41873,0.20434,-0.13472,0.84549,-0.8772,-0.5021,0.70136,0.96399,-0.97047,-0.24662,-0.7751,0.38532,-0.17763,0.51455,-0.068183,0.19588,-0.76166,0.11648,0.43692,-0.2707,0.601,0.2526,-0.14951,-0.62724,-0.11177,-0.71641,0.92076,-0.1435,0.50728,-0.47965,0.28647,0.58491,-0.020265,0.52189,0.69479,0.13753,-0.54375,-0.63842,0.75311,-0.72571,-0.89033,0.098313,-0.98097,-0.90894,0.3145,0.39328,-0.34431,-0.19057,-0.17382,0.73053
0.50937,-0.22646,0.311,0.60074,-0.0074222,-0.048429,0.11713,0.027126,0.40553,0.0086485,0.48643,-0.59237,-0.52702,0.093384,-0.40374,-0.95397,0.91055,0.46198,0.99065,0.3289,0.25942,0.89656,0.22878,-0.11373,-0.11781,-0.17693,-0.46015,0.65185,-0.58729,0.088931,0.57213,0.6758,0.059403,-0.67443,-0.060729,-0.8973,-0.11884,-0.61227,0.90042,-0.71768,0.038288,-0.86046,0.506,0.85043,-0.57376,-0.66731,-0.95242,-0.70788,-0.59347,-0.85177
-0.44795,0.83198,-0.78049,-0.42811,0.28463,-0.20185,0.80355,0.98518,0.013494,0.52699,0.27708,0.91743,-0.60989,-0.28522,-0.73365,0.79885,-0.1182,-0.8732,-0.8326,-0.37049,-0.537,0.032787,-0.10639,-0.02376,-0.3466,-0.69386,0.89881,0.23437,0.72276,-0.83558,-0.017718,0.37472,-0.55626,-0.0638,-0.25936,0.64633,-0.80219,-0.2789,-0.034398,0.96519,-0.73094,0.7209,0.40742,0.50269,-0.10916,0.547,-0.98566,-0.907,-0.59994,0.88997
0.35941,-0.9977,0.86752,0.087326,-0.55747,0.19888,-0.16096,-0.088313,-0.23747,-0.90225,0.18837,0.42366,0.41076,0.402,-0.40998,-0.094108,0.75152,-0.014427,-0.063588,0.77143,-0.23785,0.91341,-0.97595,0.72226,0.8288,0.65802,0.80447,-0.61225,0.31569,0.19625,-0.19308,-0.83713,0.49636,0.18729,-0.84873,-0.92611,-0.74577,-0.19121,-0.1342,0.94377,-0.26605,-0.58323,-0.28732,-0.8792,0.49038,-0.1736,0.60706,-0.50863,-0.99448,-0.96937
0.3102,-0.075102,-0.62508,0.96955,0.67411,0.60105,-0.28374,-0.14792,-0.87014,0.45186,-0.002755,-0.66619,-0.6389,-0.78156,-0.66675,-0.88395,0.7299,-0.54015,-0.81239,-0.40891,-0.093597,-0.45596,-0.93146,0.43291,-0.010887,0.4784,-0.6107,0.61616,-0.79559,-0.94163,0.75488,0.61228,-0.48369,-0.82933,-0.66009,-0.46566,0.60326,-0.54844,0.23962,-0.14221,0.39324,-0.52274,0.34082,0.44427,0.33102,0.41723,-0.5149,-0.65404,0.9671,-0.84146
-0.67478,-0.1513,-0.46764,0.43136,0.94215,-0.78986,-0.022025,-0.57357,-0.28284,0.40266,0.13571,-0.11445,0.044666,-0.98678,-0.36579,-0.78746,-0.2897,-0.32522,0.45034,-0.40927,0.0011191,0.05398,-0.20246,0.24067,0.42047,-0.80226,0.4679,0.97127,0.16093,-0.090182,0.41637,-0.73045,-0.60177,-0.0057185,0.34393,-0.39562,-0.49023,0.33811,-0.53949,0.51208,-0.74083,-0.23883,-0.81801,-0.42734,-0.40121,-0.33573,0.58514,-0.47972,0.84094,0.50769
-0.762,-0.078167,0.59566,0.67794,0.69275,0.64288,-0.48808,-0.6135,-0.5315,-0.082218,-0.14699,0.26599,-0.40766,0.1946,-0.78032,0.99685,0.26229,0.10328,0.82409,0.81416,0.081143,0.82238,0.9589,-0.82045,0.32928,0.64127,-0.65028,-0.7028,0.92698,-0.335,0.65298,0.13983,0.74305,0.5538,0.18026,0.32461,-0.00014307,0.91443,0.4011,0.11718,0.5717,-0.42527,0.64531,0.92895,0.54511,0.10212,0.598,0.91335,0.55224,-0.25427
-0.0032719,0.54032,-0.024792,-0.13348,0.011999,0.68217,0.85834,0.66551,-0.59299,0.16459,-0.84752,0.85993,-0.074436,0.31835,0.66418,0.73265,0.7291,0.48737,-0.82717,-0.014231,-0.30971,-0.57063,0.085538,-0.77648,0.66356,-0.54578,-0.78972,0.70606,0.68975,0.88735,-0.97866,0.14938,-0.94563,-0.73236,0.33558,0.25151,0.045991,-0.13667,0.96199,0.51331,-0.89938,0.50105,-0.15356,-0.70134,-0.28921,0.99294,-0.58994,0.21785,0.58867,-0.58115
0.91949,-0.35506,0.53792,-0.058751,-0.44225,-0.29099,-0.066486,0.45327,0.62756,-0.32182,-0.41883,0.058662,0.85046,0.16001,0.94319,0.23041,-0.95802,-0.17539,0.039902,-0.58572,-0.41714,0.65357,0.82477,0.15118,-0.48393,-0.78612,-0.37177,-0.5228,0.50621,-0.3938,-0.80889,-0.96779,-0.92732,0.40039,-0.099481,0.42468,-0.96079,0.60763,-0.67297,0.95184,0.63123,-0.36212,-0.79682,0.19441,-0.81976,0.33436,-0.016584,0.21712,0.1033,0.67251
-0.31923,0.56948,-0.20799,0.12143,0.49323,-0.13986,-0.49198,0.059491,-0.21313,-0.65875,0.12267,0.25295,-0.56822,0.8199,-0.56346,-0.94611,-0.84636,0.015237,0.10526,-0.94836,0.40706,-0.72334,-0.35168,-0.076685,0.53848,0.32555,-0.30247,-0.16612,0.4061,-0.14355,0.086569,0.86966,-0.12401,0.66146,0.58389,-0.44833,0.75403,0.59638,0.26157,-0.91625,0.73388,-0.78526,-0.80482,-0.069663,0.45436,0.7779,0.70009,-0.49884,0.42283,0.71618
0.17054,-0.057286,-0.45412,-0.46182,-0.52614,0.14448,-0.13756,0.65816,-0.89285,-0.20161,0.26667,0.36164,-0.99798,0.27201,0.41216,-0.35495,-0.24657,-0.74206,0.3703,-0.65958,0.86816,-0.1245,-0.41897,0.090899,-0.17887,0.90915,-0.20208,-0.3552,-0.50675,0.32207,0.71243,0.22956,-0.86862,0.026296,-0.088404,0.99217,-0.079794,0.99048,0.28358,-0.29799,-0.60621,0.61227,-0.78729,-0.17733,0.43304,-0.28348,0.25136,0.57,-0.87477,0.54545
-0.55238,-0.92847,-0.92553,0.49804,0.91469,0.40165,0.40506,0.023749,-0.2499,0.83955,0.86155,0.8464,0.81321,0.051123,-0.92197,-0.072448,-0.70161,-0.57033,-0.40069,-0.39532,0.18835,0.75057,0.75795,-0.92398,-0.88869,0.62913,-0.43217,-0.13192,-0.92012,-0.23782,-0.47129,0.33715,0.95877,-0.99037,0.78893,-0.39911,0.95988,-0.57639,0.27305,-0.046704,0.21479,-0.49588,0.2374,0.76098,-0.83787,-0.13197,-0.57044,-0.97743,-0.8767,-0.30382
0.50253,-0.64825,0.34659,0.0077755,0.24052,0.48494,-0.19534,0.10392,0.54999,-0.54791,0.95554,-0.69433,0.36008,-0.48075,0.23259,-0.80197,-0.93181,-0.41434,0.20376,0.92288,0.18618,0.40862,0.55829,0.15857,0.7413,0.24651,-0.37218,-0.34515,-0.075774,-0.72766,0.55109,-0.15645,0.2578,-0.28658,-0.85489,0.0025307,0.13895,-0.34196,0.97443,-0.65013,0.99336,0.0078097,-0.59803,-0.55022,0.47302,0.4661,0.94555,-0.75305,0.21276,0.93522
-0.48981,0.44352,-0.14087,0.29362,0.20052,0.51577,-0.63632,-0.57343,-0.6694,-0.27799,-0.81281,-0.18856,0.029904,-0.89766,0.33873,0.14198,0.5645,-0.10007,-0.60299,0.56731,0.47746,-0.0059556,-0.21118,0.25796,0.9446,-0.34346,0.43656,-0.80206,-0.76525,-0.80675,0.27584,0.40553,0.31266,0.94604,0.27087,-0.73536,0.74861,0.52468,-0.22617,-0.28819,-0.91525,-0.9203,-0.1536,0.085925,-0.83251,0.98906,0.07377,0.28719,-0.50638,-0.34981
0.011914,-0.053028,-0.096522,-0.38451,-0.65479,-0.22174,0.7125,0.17564,0.82444,-0.35088,0.32347,-0.37505,0.044138,0.4639,-0.9256,-0.34825,-0.34551,-0.51944,0.31351,0.34651,-0.25471,0.21919,0.76465,-0.036145,-0.76605,-0.44526,0.88929,0.34235,-0.67676,-0.38968,0.45012,-0.058607,-0.34419,-0.71068,0.61724,0.79512,-0.51695,0.51352,-0.47655,0.77694,-0.72235,0.24839,0.61804,0.8952,0.78338,-0.04671,0.66928,0.80298,-0.99633,0.12822
0.39815,-0.69456,0.21971,-0.72255,-0.81931,-0.1414,0.1684,-0.71447,-0.36159,-0.83284,0.20555,0.3878,-0.79416,-0.67142,-0.99333,-0.099015,0.63495,-0.47347,0.39671,0.68144,-0.093459,-0.84434,-0.14866,-0.67895,0.016626,-0.13125,-0.82442,-0.90128,-0.16049,0.64777,0.7893,-0.18221,-0.049,0.54953,-0.3578,-0.52412,-0.76488,0.92255,-0.084383,-0.86169,-0.55409,-0.22512,-0.34217,0.30668,0.77618,-0.33688,0.63111,-0.22947,0.53238,-0.55722
0.78181,-0.31775,-0.88119,-0.048854,-0.48948,0.91269,-0.25284,-0.89555,-0.34044,0.025331,-0.052364,0.78138,0.99376,-0.43921,-0.71507,0.15569,-0.65276,0.78317,-0.080639,-0.15829,0.018751,-0.51713,-0.067244,0.50876,0.51113,-0.29941,-0.44093,-0.59801,0.33223,0.25451,0.53597,0.97727,-0.96752,-0.27804,0.072143,-0.86582,-0.69719,0.13978,-0.77125,-0.81451,0.16602,-0.38345,-0.4533,-0.93181,0.13868,0.21069,0.10966,0.53463,-0.14914,0.17417
0.91858,0.21478,-0.36838,-0.27508,0.71714,0.14594,-0.55661,0.36662,-0.59153,0.66573,-0.28749,-0.018658,-0.28206,-0.48115,0.72481,-0.85031,0.35224,0.17228,-0.68468,0.40747,0.85742,-0.94843,-0.15014,0.58699,-0.78003,0.75552,0.19232,-0.0017261,0.94631,-0.58813,-0.58631,-0.029499,-0.59994,-0.43684,0.73216,-0.26875,-0.88101,0.21701,-0.28379,-0.58839,0.34221,-0.3359,0.63766,-0.22229,0.69409,0.54632,-0.14294,0.77626,0.97913,-0.36659
0.094431,-0.61651,0.54544,0.57623,0.82213,0.69944,-0.56201,0.21712,0.53443,0.80923,-0.048843,0.61165,0.25049,0.094192,-0.44793,-0.88531,0.7512,0.87735,-0.15643,-0.037427,-0.098424,0.69295,-0.08958,-0.41726,-0.93227,-0.98769,0.65687,-0.44916,-0.4407,0.96037,-0.91339,-0.76547,0.71699,0.086819,0.068432,0.97801,-0.59959,-0.26982,0.5707,0.2304,0.44639,0.86319,-0.58707,0.74784,-0.74675,-0.22871,-0.41539,-0.84807,-0.8595,0.4099
-0.72275,0.47685,0.39287,0.56059,0.39927,-0.44731,0.044465,-0.56069,-0.86005,0.44719,0.34204,-0.34712,-0.21327,0.082537,0.063383,-0.39809,0.51431,0.23616,0.19211,0.64115,0.27487,-0.97027,0.39085,0.015217,-0.1178,0.3929,0.56431,-0.16079,0.062786,-0.12445,-0.69287,0.71617,-0.86492,-0.18552,0.58722,-0.57595,0.73648,-0.3129,-0.38977,-0.45314,0.008877,-0.064021,0.30913,-0.22338,-0.59058,-0.59227,0.60531,-0.29477,-0.75098,-0.85646
-0.70141,-0.5143,-0.74934,0.33702,0.45036,0.24465,-0.13315,-0.18744,0.90007,-0.23401,0.91929,0.099758,-0.98468,0.57623,0.044443,0.043442,-0.54075,-0.49856,-0.35534,-0.12522,-0.081272,0.10083,-0.80884,-0.52402,-0.74043,-0.32387,0.11448,0.19399,0.86139,0.67039,0.43663,-0.31605,-0.3785,0.84061,0.17247,-0.42493,0.54175,0.19998,0.46135,0.49557,0.28926,-0.99986,0.15203,0.49381,-0.90106,-0.22665,0.97753,0.92799,0.93683,-0.81793
-0.48498,0.83485,-0.7397,-0.73299,-0.54023,0.17672,0.48261,0.25982,-0.68358,-0.40397,-0.82183,-0.22243,0.09057,0.73921,0.13524,0.12376,-0.28211,-0.79493,0.66146,0.71995,0.10755,-0.76066,0.46692,-0.61463,0.9432,-0.39003,-0.92745,-0.90171,-0.66668,0.078361,-0.74271,-0.36724,0.65325,-0.2862,0.76301,0.0091786,0.86374,0.051258,0.29016,-0.38855,-0.92726,0.45156,0.12743,0.48221,0.38476,-0.86994,0.016772,0.12147,0.75445,-0.63052
0.68143,-0.46188,-0.8153,-0.95689,0.15211,0.92694,-0.8591,0.11062,-0.42711,0.38342,0.59548,0.79366,0.018221,0.57508,-0.33393,-0.51689,-0.27367,0.092728,-0.75463,-0.98221,-0.91753,0.1759,-0.73996,0.61739,0.88031,0.2962,0.33874,0.77336,0.5785,-0.94975,-0.55842,-0.24495,0.22374,-0.77498,-0.11365,0.26114,-0.83849,-0.030067,0.67873,0.53089,-0.6123,-0.20103,-0.37065,-0.54044,-0.41343,-0.13536,-0.6184,0.69911,-0.51926,-0.61486
-0.49144,0.531,-0.98436,0.11968,0.62126,-0.82819,0.69467,-0.74484,0.37426,0.76091,0.18155,0.35224,-0.50644,0.93886,-0.17317,0.82544,-0.46511,-0.11471,-0.49764,0.99206,0.6044,0.24442,-0.0069426,-0.86665,0.86624,0.84229,0.69798,0.7166,-0.79407,-0.98635,-0.092881,0.73976,0.8292,-0.48983,-0.81367,-0.21363,-0.86022,0.3113,0.041221,-0.49423,0.49909,-0.95415,-0.70867,0.8476,0.4957,0.37947,0.082322,0.70356,0.031841,-0.68705
0.62857,-0.62268,-0.15378,-0.39836,-0.19231,0.00099778,0.35976,-0.6616,-0.7177,0.8491,0.82439,0.65679,-0.90921,-0.63906,-0.1713,0.65147,-0.32539,0.38301,0.87522,-0.4496,0.34302,0.49404,-0.48068,-0.60828,0.96752,0.78615,-0.86907,-0.82988,0.76725,0.57217,-0.069478,0.062867,0.76822,-0.68865,0.85899,0.35992,0.95461,-0.9235,-0.23718,0.34203,-0.38364,0.27548,-0.73957,-0.65592,0.069478,0.013125,-0.50261,0.44775,-0.84245,-0.45528
-0.51295,-0.425,0.31115,0.87882,0.97688,0.043179,-0.7267,-0.998,0.024173,-0.83749,-0.79774,-0.77982,0.68346,0.8612,0.96784,-0.11091,-0.82608,0.51888,0.31042,-0.93297,-0.59934,-0.38014,0.18333,0.94956,0.38607,0.99436,-0.27847,-0.64517,0.044475,-0.10521,-0.82043,-0.94969,-0.50937,0.62622,-0.16286,-0.73993,0.043403,-0.62015,0.23849,-0.73617,0.4981,-0.1213,0.68533,0.66051,-0.34415,0.43383,-0.21691,0.89187,0.2712,-0.63456
0.85853,-0.81777,0.44585,0.96181,-0.82,-0.81967,0.7168,-0.16368,0.44265,-0.034654,-0.41341,-0.44155,-0.9035,-0.9097,-0.88452,0.96413,-0.096881,-0.20116,0.50582,-0.6958,-0.97083,0.83301,-0.54476,0.15018,0.40495,-0.85423,-0.4839,-0.9732,0.94825,-0.42253,0.013459,-0.50329,0.9164,0.25928,0.053405,-0.85952,0.5754,0.85749,0.20952,0.8849,0.70407,0.18354,-0.050777,-0.17831,0.84204,-0.39757,-0.58681,0.39337,0.23241,-0.9294
-0.30003,0.15242,0.062419,-0.42676,-0.35812,0.80933,-0.60033,-0.023029,0.85769,-0.74347,-0.89682,0.53527,-0.36736,-0.51871,-0.20691,0.15654,-0.090672,0.13483,0.62172,-0.040808,0.52633,0.56453,0.91024,0.16643,-0.25738,-0.74076,-0.13481,0.17997,0.51221,0.72636,-0.84698,0.44736,-0.095407,0.31875,0.38189,-0.90923,-0.38049,0.16596,0.071109,-0.11083,-0.80129,0.23597,-0.53661,0.54067,0.65693,0.41202,0.57155,-0.86558,0.35891,-0.85808
-0.60681,0.36673,-0.78236,0.60164,0.022818,0.76878,0.21468,-0.68026,0.46421,-0.49418,0.0082564,-0.56789,0.56684,-0.98229,0.58264,-0.53115,-0.94193,-0.58883,-0.90315,0.77768,0.13502,-0.79791,-0.87398,0.90004,-0.87179,0.96314,-0.38786,0.41572,0.44514,0.31246,-0.66695,-0.13524,0.77712,0.32824,-0.89069,0.10786,-0.76297,-0.96918,0.46022,-0.28401,0.19556,-0.091807,0.56208,-0.31996,0.045981,0.83041,-0.053655,-0.41989,0.67921,-0.95511
-0.49783,0.093186,0.26353,0.79222,-0.87879,-0.12202,0.08609,0.33368,0.4997,0.76792,0.53675,-0.93188,0.9448,0.34319,0.18837,0.62118,0.2742,0.88706,-0.17058,-0.43316,0.30843,-0.43779,-0.63351,-0.79992,-0.1131,-0.81952,0.93318,0.51785,-0.9948,-0.43061,0.49542,-0.4771,-0.070299,0.094554,-0.31918,0.78163,-0.029144,-0.41265,-0.24737,-0.6604,0.4412,-0.90183,0.36485,0.78267,-0.75464,0.4116,-0.054028,-0.60563,0.53737,0.22655
0.23209,-0.14854,-0.747,0.19505,0.45138,0.56345,-0.67535,-0.96416,-0.18536,-0.60745,-0.43403,-0.1269,0.17293,0.80963,-0.38087,-0.097452,-0.88108,0.025613,0.45098,0.56825,0.26948,0.81501,0.24848,0.75747,0.085975,0.37232,-0.74013,-0.57206,-0.58877,0.28913,-0.33087,-0.62118,0.17044,-0.4281,0.58558,0.17159,-0.16944,-0.90948,-0.75652,-0.0018519,0.13743,0.43939,-0.67756,0.71085,-0.81532,-0.73375,0.43638,-0.68524,-0.89072,-0.45812
-0.053422,0.28889,-0.73139,0.76803,0.11311,-0.70307,-0.98869,-0.76065,-0.52102,-0.75729,-0.54928,0.87373,0.55609,0.14483,0.80361,-0.50006,-0.66161,-0.44751,-0.72191,-0.65921,0.46866,-0.77783,-0.41719,0.7829,0.080324,0.85793,-0.56513,0.93233,-0.47926,-0.47284,-0.38989,-0.57104,-0.97664,-0.80537,-0.98691,0.063092,0.83168,0.58946,-0.26616,-0.095668,-0.52978,0.48019,-0.71761,-0.73619,0.34592,0.33093,-0.74399,-0.40777,-0.83603,-0.060652
-0.29668,0.29524,-0.80281,0.88746,0.05872,0.23963,0.54297,0.90425,0.041701,0.08739,-0.33742,-0.47582,0.45539,-0.68908,-0.81375,0.91088,0.36936,-0.54172,0.26511,0.46259,0.77465,0.57964,-0.72563,-0.57193,0.57257,-0.71637,0.78679,-0.031222,-0.84009,-0.65044,0.63776,-0.010211,0.45687,0.66244,-0.8916,0.28808,-0.68108,0.42273,0.62156,-0.86757,0.82127,-0.1904,0.33749,0.36473,0.42086,-0.24887,0.90161,-0.48504,0.086034,-0.64856
0.66166,0.35803,-0.71595,0.098316,0.65996,-0.47875,0.52958,0.95171,-0.56185,-0.37076,-0.093497,0.13949,0.30197,0.0047349,-0.36195,-0.7147,0.10913,0.90586,-0.50633,-0.50676,0.33182,-0.79544,-0.62213,-0.6661,0.20282,0.76883,0.24341,-0.87506,0.47066,-0.26276,0.9641,-0.934,-0.1694,-0.36996,-0.45185,-0.18499,-0.59278,0.072723,0.79541,0.77576,0.90124,-0.89717,0.31747,-0.70084,0.96174,0.0048837,0.46968,-0.5673,-0.35576,0.62219
0.17053,0.27157,-0.6635,0.45677,0.71752,-0.10869,-0.15786,-0.93817,0.68478,-0.23592,0.47477,-0.28089,0.32923,0.13547,0.77392,0.025127,-0.98793,0.37884,0.67994,-0.83632,-0.75865,0.53589,0.91323,0.29225,0.89403,-0.96048,-0.20368,-0.64308,0.6453,0.075084,0.93794,-0.25475,-0.76273,0.19757,-0.28504,-0.47725,-0.69982,0.17359,-0.30657,0.81557,0.032631,0.89601,0.28761,-0.17926,0.9247,-0.20198,0.23728,0.052052,-0.51123,-0.96134
0.099447,0.89035,-0.6075,0.15352,0.57806,0.688,-0.88637,-0.012236,0.32587,0.58308,0.019771,-0.94632,0.87756,-0.62346,0.31486,0.94385,-0.42383,0.41575,0.67334,0.70582,0.42747,0.32411,-0.40677,-0.63931,0.26244,-0.31463,-0.28782,-0.32347,-0.31322,0.85281,0.15324,-0.28665,0.19251,-0.062465,0.56211,0.21842,0.91539,-0.57811,-0.96819,0.56531,0.41418,0.75477,-0.62642,0.099895,-0.19586,0.92087,0.12326,-0.35822,-0.95535,0.026492
0.83439,-0.58213,-0.36504,-0.94829,-0.36433,-0.60759,0.17149,0.72544,0.63247,0.67836,-0.23497,0.00083838,0.070163,-0.35161,0.36903,0.29664,-0.24678,0.31384,-0.093855,0.3731,-0.10555,0.5462,-0.52559,-0.7669,0.75767,-0.52339,0.29315,0.76096,-0.72772,0.49824,-0.53303,-0.45059,-0.99062,0.31642,-0.62231,0.26557,0.49736,-0.17217,-0.94243,-0.056113,0.59759,0.6553,0.6442,0.10361,-0.62617,-0.76865,-0.54447,-0.43064,-0.65875,0.83549
-0.42832,0.41856,-0.36714,-0.10694,-0.095585,-0.3923,-0.65169,-0.51425,0.58776,0.36047,0.81097,0.65403,-0.20312,0.43207,-0.052103,0.22934,-0.70701,0.55793,-0.21048,0.91622,0.28196,0.86396,0.32032,-0.26933,-0.75463,0.96913,0.46618,-0.91456,0.33178,-0.70453,-0.4158,-0.4712,0.87891,-0.478,-0.18704,0.51855,-0.5871,0.031641,0.69928,0.59228,-0.60062,-0.10273,0.22749,0.546,-0.22129,0.12244,0.77014,-0.84702,0.90191,0.49644
0.5144,-0.52754,-0.56487,0.2926,0.50446,-0.033411,0.45722,0.66854,-0.06179,-0.16616,0.93052,-0.48204,0.34092,0.10586,-0.71751,-0.060699,-0.85093,0.16094,0.92319,0.97011,0.29779,-0.64623,-0.99141,-0.19525,0.6271,0.6932,0.4634,-0.28919,0.66088,-0.99422,0.34753,0.48903,0.38282,-0.43094,0.38791,-0.53221,0.3314,0.67667,0.87912,0.75129,-0.78632,0.76895,0.86444,0.4815,0.77024,-0.065549,0.028064,0.77018,-0.32324,0.55929
0.50746,-0.76121,-0.49792,0.042406,-0.78028,-0.32438,0.068582,0.62718,-0.38095,0.28578,0.25653,-0.90823,-0.11893,-0.71544,0.90185,0.15556,-0.078514,0.0064603,-0.98364,0.069445,0.35675,-0.95916,-0.84366,-0.82038,0.95521,0.58902,0.91635,0.28148,0.34724,-0.74597,0.14748,-0.73663,-0.4564,0.38211,0.65896,-0.42255,-0.56087,0.31982,0.52541,0.3445,0.23715,0.70744,0.32283,0.81535,0.19044,-0.68213,-0.16272,-0.72481,-0.0042552,-0.26906
-0.23911,0.21461,0.78584,-0.25537,-0.78052,0.59697,-0.49387,0.25795,0.37516,-0.57184,-0.73594,-0.50706,-0.73425,-0.23927,0.76525,0.82263,-0.25921,0.75746,-0.20312,0.81196,-0.88234,0.66728,-0.38083,0.36754,-0.53751,0.80056,-0.90809,0.65577,-0.72108,0.83384,-0.6006,0.60617,0.50747,0.94696,0.092351,-0.9546,-0.1014,-0.037648,0.93161,-0.85923,-0.95555,0.29547,-0.50159,-0.072569,0.25639,0.050396,0.55061,0.3325,-0.2596,0.92631
0.13564,-0.099725,0.40645,0.87427,-0.46023,0.97498,0.83411,-0.99552,0.9737,0.23454,0.2366,0.32146,-0.12159,-0.20686,-0.12512,-0.24756,0.64912,-0.2141,-0.024455,-0.046703,-0.55209,-0.053613,-0.55206,0.093788,0.82547,0.56021,-0.15128,-0.91075,-0.24235,0.34424,0.9164,-0.39119,0.31666,-0.43488,0.82468,-0.41713,0.88075,0.70553,-0.014565,-0.75106,-0.92488,0.013567,-0.90662,-0.19839,0.92132,-0.36052,0.39443,-0.99746,0.32246,-0.29006
-0.84829,-0.082549,0.11148,0.65907,0.049275,-0.6819,0.51639,-0.24055,0.53987,0.35038,-0.23396,-0.34118,0.095285,0.15348,0.66991,-0.54247,0.075071,-0.51473,0.23627,0.77934,-0.66404,-0.78271,0.39058,0.97192,0.35274,0.67302,-0.98197,0.58165,0.35673,-0.77242,-0.32769,-0.31431,-0.43258,0.70799,0.83526,-0.29183,0.16388,-0.036944,0.10989,-0.14927,-0.76927,-0.84795,-0.92572,0.8878,-0.52048,0.56268,0.98055,0.78005,-0.068627,0.74714
-0.8921,0.32389,-0.63113,0.69817,0.9453,-0.52624,0.77406,0.80881,0.65916,0.20205,0.98239,0.31899,-0.20973,-0.9612,-0.34971,-0.15295,0.63503,-0.43675,-0.85998,-0.9523,0.85706,-0.82189,0.40046,-0.5745,0.45013,-0.35781,0.40761,-0.8977,0.03185,0.92045,-0.70067,0.31868,0.071229,0.80266,0.23708,0.29926,-0.70455,-0.45541,0.30447,0.56533,0.63739,-0.27519,0.43654,-0.80877,-0.36395,-0.87413,0.18582,-0.0033448,0.78546,0.46972
0.061595,0.54057,-0.57594,-0.25493,0.42082,0.40447,-0.8624,0.3607,0.41217,-0.30738,-0.42635,-0.97399,-0.20346,0.15516,-0.26472,-0.45281,-0.079238,0.80954,-0.71462,-0.74255,0.030462,-0.76974,0.70363,0.83798,0.37158,0.48549,0.56178,-0.40715,0.95611,-0.76123,-0.34323,-0.92207,-0.87957,0.67551,0.82094,0.2152,0.25906,0.46239,0.94626,0.17829,-0.2462,-0.53782,-0.51316,0.1175,-0.42759,0.24469,-0.68733,0.87475,-0.4809,-0.15525
0.55833,-0.29956,-0.84531,0.18637,-0.37628,-0.24906,-0.63294,-0.24235,0.19067,-0.2712,0.41238,0.43614,0.5027,0.86439,0.58968,-0.11087,-0.97193,0.40535,0.30845,0.48128,0.34673,-0.66405,0.11812,0.33032,0.59344,0.32899,0.12968,-0.45572,-0.46455,-0.015169,-0.77381,0.54429,0.35485,0.50456,0.78772,0.51234,-0.63139,0.93894,0.80746,-0.055728,-0.54169,0.72036,-0.70865,-0.36521,0.83602,0.27411,-0.73842,-0.96609,0.36058,0.028497
0.86802,0.32402,0.8276,0.74511,-0.41709,0.94741,0.47415,0.26391,0.50575,-0.65704,0.070412,-0.21776,0.044701,-0.78625,-0.80138,0.25503,-0.99003,0.70611,-0.56336,-0.21796,0.3356,0.94502,0.14066,0.48696,0.059254,-0.42163,-0.95341,0.82691,0.73382,-0.27737,0.54383,0.38017,0.84577,-0.48174,-0.30941,0.76873,-0.83421,-0.24875,-0.94991,-0.93242,-0.26372,0.26878,-0.91209,0.88954,0.61709,-0.83779,-0.65929,0.39454,0.061898,-0.32833
-0.74019,-0.16768,0.41343,0.867,0.70071,0.94461,0.39343,-0.51346,-0.0065556,0.59072,-0.61358,-0.93299,-0.019134,0.4643,0.90356,0.069283,-0.66755,-0.24263,-0.76174,-0.21274,-0.83708,-0.42799,0.061841,-0.24309,0.50928,-0.32526,-0.98487,0.21093,-0.25249,-0.059999,0.58513,0.85449,-0.066723,0.89428,0.99277,0.79101,-0.57214,-0.5228,0.14865,-0.63985,-0.65092,0.46291,0.61766,0.2378,0.95493,0.69263,-0.86796,0.55664,-0.90759,-0.77088
0.13765,0.68386,0.11558,0.33693,0.82329,0.2874,0.55399,0.14283,0.73027,-0.014666,0.37887,-0.18797,-0.82264,0.94105,-0.99705,-0.22912,-0.26812,0.26604,-0.91373,0.2037,-0.54985,0.19805,0.71777,-0.050463,0.0071084,0.81727,0.97794,0.0044349,-0.72674,-0.88244,0.17414,-0.87596,-0.26238,0.69426,0.78053,-0.84385,0.052872,-0.51459,0.45875,0.86364,0.54956,-0.68729,0.68145,-0.071228,-0.6538,0.72387,-0.24944,0.30498,0.35639,0.57351
-0.061219,0.66583,-0.37314,-0.58645,0.27855,0.7202,0.0038068,0.96346,-0.86394,-0.29075,-0.89909,0.43262,-0.4983,0.21777,-0.40921,0.7469,0.43642,-0.93689,-0.66888,-0.95223,-0.43162,0.70442,-0.10731,-0.78748,0.81408,-0.9355,-0.59671,0.4732,-0.83462,-0.33998,-0.84162,0.37493,0.83479,0.68475,-0.27237,0.051742,0.33341,-0.96212,-0.69666,0.18153,-0.33994,0.89929,-0.54097,0.75806,0.61038,0.51745,0.45272,0.10317,-0.40336,-0.049328
-0.9762,-0.48712,-0.66759,0.3077,-0.48926,-0.19623,-0.14901,0.69936,0.93709,0.55012,-0.63113,0.84267,-0.10488,0.43933,-0.90309,-0.3993,-0.68115,0.84007,0.022212,-0.22466,0.82753,-0.51043,-0.23324,0.76757,-0.75278,0.39272,0.64668,-0.77575,0.47765,-0.47096,-0.6142,0.45139,-0.97685,0.55431,0.56579,-0.90971,-0.082002,0.96531,-0.90104,0.012671,-0.36844,-0.19915,0.49568,0.46537,-0.2712,0.87547,-0.22179,0.034796,-0.78932,-0.71274
-0.32575,0.22692,0.24499,-0.8559,-0.82267,0.26386,0.22247,-0.43311,-0.80249,-0.52639,-0.90868,0.96803,0.27592,-0.3945,-0.11452,-0.19994,-0.44246,-0.060506,0.73454,-0.88651,-0.5418,0.45434,0.19072,-0.10979,0.70445,-0.58246,-0.2781,0.76898,-0.25586,-0.50816,0.55081,0.69306,0.85847,-0.052489,-0.34335,0.59323,-0.56908,0.60524,0.069877,-0.56312,0.44917,0.22277,-0.43611,0.17843,0.12375,0.29524,-0.92797,-0.19007,-0.064965,-0.027088
-0.67564,0.1645,0.97587,-0.18655,0.67651,0.97047,0.71154,0.36492,0.093954,0.68967,0.77008,0.96684,0.41889,-0.081955,0.57969,0.035447,0.28988,0.039806,0.53252,0.37914,-0.50276,-0.19842,-0.38992,0.33646,-0.64991,0.6483,-0.077494,0.059101,-0.23897,0.89535,-0.29322,0.1076,0.38684,0.70233,-0.68659,-0.37034,-0.55945,0.12697,-0.92026,0.9041,0.16991,0.59698,-0.3235,-0.79871,-0.42318,0.99205,-0.98869,0.08123,0.36459,0.81388
0.58857,0.081479,-0.65914,0.33386,0.16944,0.11895,0.34159,-0.28375,-0.19406,0.63305,0.67959,0.79261,0.98524,-0.90394,0.82704,-0.87635,-0.42559,0.53262,-0.7301,0.040782,0.35258,-0.3788,-0.79778,0.45643,0.52833,-0.56354,-0.77991,-0.98901,-0.39565,-0.93512,0.6779,0.68479,0.64247,0.85837,0.47897,-0.52899,0.78018,-0.22234,-4.0506e-05,-0.27548,0.55551,0.37274,-0.34159,-0.95624,0.43736,0.47243,0.31232,-0.4527,0.55996,-0.12084
-0.37757,0.73988,-0.48442,0.86745,0.89622,0.86718,0.047184,0.97385,-0.78592,0.69246,-0.76369,0.73141,0.86439,-0.2293,0.066509,-0.53727,-0.35614,-0.32757,-0.87016,-0.84783,0.29698,0.3076,-0.25612,-0.42871,-0.081335,-0.80072,0.56252,-0.67426,-0.41095,0.8123,-0.73223,-0.90216,0.71547,-0.95151,0.26347,-0.46512,-0.39689,0.30506,-0.57933,-0.082906,-0.28085,-0.9999,-0.86673,-0.83141,-0.34296,-0.88504,0.50532,-0.68954,0.65525,0.31509
0.057066,-0.47044,-0.2064,0.6219,-0.87794,0.44069,-0.40237,-0.83203,0.44833,-0.25963,-0.17917,0.60192,-0.81554,-0.27657,0.60815,-0.76303,-0.68917,0.25197,0.34489,-0.18748,0.40735,-0.21635,-0.55569,0.18737,0.21213,0.23901,-0.093113,-0.47535,-0.48037,-0.263,0.3963,0.51761,-0.77885,0.45817,0.19981,-0.71523,-0.49988,0.98742,-0.048019,0.66162,-0.63053,0.0053153,-0.84569,-0.089694,0.35398,-0.98131,-0.86477,0.76493,-0.14386,-0.07887
-0.6687,-0.36385,-0.85201,-0.030903,0.16928,-0.031923,0.40794,-0.49939,0.22736,-0.23354,-0.75954,0.10996,0.90708,-0.42483,0.12532,-0.80244,-0.22467,-0.3462,-0.035586,-0.13957,0.67421,-0.76133,0.28645,-0.25894,-0.27192,-0.79237,-0.4058,-0.92226,-0.07305,0.32508,-0.61931,0.352,0.41,-0.067361,-0.51888,-0.6123,0.79323,0.42753,0.3081,0.58133,0.14738,0.97124,-0.010337,-0.62336,0.66709,0.66183,-0.32146,-0.62406,0.0086169,-0.76818
0.20396,-0.76157,0.36819,0.5135,-0.42978,0.27806,-0.23678,0.62269,0.56594,0.72267,0.14419,-0.16226,-0.67441,0.63343,0.50175,0.78055,0.79147,-0.37779,-0.0091642,0.31862,0.45459,0.95708,0.55331,0.59128,-0.19611,0.59812,-0.2832,0.36413,0.9757,0.90725,-0.20639,0.74886,0.10333,0.18239,-0.43531,0.66677,-0.76054,-0.79527,-0.90205,-0.11795,-0.033811,-0.98599,-0.24781,-0.84975,-0.915,-0.32998,-0.0052162,-0.12839,0.26844,-0.30177
-0.47406,0.87966,-0.19522,-0.16591,0.65546,0.77527,0.13537,-0.83115,0.13324,-0.072182,0.89878,-0.74575,0.94091,-0.098944,-0.98154,-0.93322,0.77553,0.29216,-0.37303,-0.56322,-0.96113,0.036504,-0.13993,-0.85293,0.46015,0.80585,-0.035128,-0.94361,-0.22985,-0.81174,-0.32211,-0.33811,0.041256,0.969,0.59747,0.49021,0.3304,-0.10542,0.71663,0.24807,-0.15675,-0.91814,-0.16683,-0.34187,0.92833,-0.46206,-0.37635,-0.27389,0.45341,-0.40432
0.30816,0.2911,0.96567,0.94357,-0.61803,-0.60253,0.77572,0.062508,0.62264,0.1411,-0.48723,0.30924,0.19401,0.61327,-0.04643,0.67807,-0.21277,-0.13262,-0.353,-0.83782,0.16749,0.015537,0.24212,0.98548,0.91026,-0.37497,-0.13755,-0.00010159,0.88647,0.37063,0.84539,0.036999,-0.37254,0.69401,0.17389,0.48771,-0.34506,0.38559,-0.92098,0.91102,-0.36535,-0.79315,0.23937,-0.54543,-0.73561,-0.7834,0.34404,0.76205,-0.17408,-0.98988
0.37843,-0.041074,-0.19563,0.97595,-0.11494,-0.20927,0.6859,0.60125,0.15355,0.39061,0.97973,0.72793,-0.51955,0.58035,-0.49934,0.014533,0.35092,-0.79423,0.8182,-0.064657,0.84175,-0.34996,-0.44185,0.55206,0.7576,-0.43682,0.39765,-0.03861,-0.666,-0.17512,0.67681,-0.09211,-0.67717,0.95339,-0.39649,-0.46812,-0.34781,-0.33409,0.28111,0.32696,0.94514,0.20681,0.32706,-0.32566,-0.72627,-0.63667,0.61678,0.60249,-0.28737,-0.66685
0.4963,0.27863,0.24134,0.7283,-0.21318,0.98435,0.7976,0.47765,0.88806,0.92183,-0.30038,-0.4508,-0.85941,-0.43408,-0.38416,-0.77257,-0.49557,-0.5277,-0.099327,0.45734,-0.81664,-0.60546,-0.043904,-0.98526,0.21946,-0.98644,0.35013,-0.44294,0.85001,-0.77642,0.25905,-0.64099,-0.36054,-0.31029,-0.40778,-0.77316,0.65098,0.8435,0.012869,-0.46702,-0.48355,-0.90762,0.27102,0.10489,0.30486,-0.23239,0.35381,-0.98809,-0.3569,0.74918
-0.098917,0.089432,-0.69126,-0.22223,0.65315,-0.1953,0.87801,-0.71667,0.7429,0.092626,-0.58296,0.68033,-0.39992,-0.86338,0.9339,-0.019109,0.89998,0.94357,0.49727,0.22797,0.10912,0.72579,-0.37052,0.7779,0.93553,-0.0082567,-0.98626,0.18098,0.50867,-0.01633,0.73098,0.6948,0.34213,-0.44527,-0.54959,-0.90204,0.10042,0.26498,0.15423,0.44631,0.1342,-0.15626,-0.3196,0.93662,-0.33976,0.67421,0.86145,0.17909,-0.075118,0.47018
-0.83236,0.29462,-0.23731,-0.090516,0.35374,0.31771,0.63087,-0.12421,0.015204,0.27315,0.33165,-0.85849,0.62709,-0.89014,-0.58239,0.19888,0.24936,0.39779,-0.62949,0.8012,0.86161,-0.46426,0.65434,0.72825,0.26828,0.97696,-0.84202,-0.42517,0.7132,-0.076895,-0.56742,-0.90715,0.047902,-0.36719,0.010884,-0.44776,0.28956,0.86437,0.75811,0.12216,-0.29587,-0.28827,0.48951,-0.54554,0.95527,0.5234,0.27784,-0.18644,0.3281,-0.8602
-0.54205,0.087772,-0.67773,-0.50663,-0.58479,0.8027,-0.99728,-0.29924,0.57765,0.14178,0.94669,-0.24242,-0.84658,0.27505,0.040953,-0.81957,-0.5861,0.3189,-0.83016,-0.49444,-0.60109,0.077362,0.48632,0.39519,0.55453,0.47588,-0.078747,0.83989,0.20477,0.75412,-0.8702,0.047192,0.2156,-0.32702,0.13007,0.31472,0.69026,-0.14816,-0.63129,0.94596,-0.37594,0.39534,0.39101,-0.19971,0.32668,0.97449,0.14582,-0.93811,0.292,-0.70155
0.82667,0.44209,0.51622,0.56885,-0.36379,0.99076,-0.99382,-0.043005,-0.053939,0.85422,0.2454,-0.46366,-0.29105,-0.15143,-0.54891,0.95645,-0.78069,-0.34781,-0.58594,-0.55981,0.050639,0.10293,-0.71138,0.76998,0.79701,-0.37856,0.55507,-0.98787,-0.78527,0.32048,0.356,-0.53459,0.52063,0.0962,-0.86221,0.2534,0.19,-0.39902,-0.59709,-0.39825,-0.9812,-0.27404,0.17315,0.98154,0.83127,0.422,0.98135,-0.13523,-0.31222,0.87923
-0.69524,0.044991,0.74222,0.76568,-0.73238,0.30633,-0.82506,0.17481,0.6576,0.72753,-0.87292,-0.69416,-0.73598,0.81106,0.1344,0.30604,0.1317,-0.96036,0.11783,-0.52839,-0.74652,0.92651,-0.86347,-0.068711,-0.54687,0.20082,0.63353,0.12906,-0.089055,-0.44407,0.07024,0.80655,-0.67227,-0.42959,-0.67219,0.14822,-0.33803,0.77806,-0.73608,-0.005959,0.33625,-0.35089,0.76548,-0.075963,-0.71165,-0.31031,-0.8909,-0.17358,0.17877,0.76187
0.65163,0.98741,-0.29845,0.82742,0.34293,-0.78313,-0.47855,-0.70839,-0.35504,-0.66032,-0.25298,0.262,-0.68364,-0.16536,0.99633,-0.077736,-0.45133,0.14095,0.3234,0.62026,0.49745,-0.46085,0.064273,-0.25688,-0.79747,0.56336,0.26278,-0.26262,0.30918,0.31434,0.034698,0.082514,-0.011277,0.83172,0.021038,-0.59928,-0.57718,-0.96525,0.64441,-0.43209,0.77138,0.35495,0.91442,0.96906,-0.79191,0.075184,-0.82988,0.7709,0.69338,-0.35065
0.076685,-0.56265,0.37107,0.11657,0.14198,-0.92777,-0.9544,0.81066,0.95229,-0.6426,-0.6675,-0.36725,-0.87571,-0.69188,-0.73627,0.72752,-0.85767,-0.92733,0.87843,0.40482,-0.37066,-0.46856,0.48791,-0.83396,0.65652,-0.77693,-0.27025,-0.25728,-0.88493,0.29083,-0.48856,-0.80263,0.52938,0.34137,0.083079,-0.18125,0.25138,-0.70389,0.47069,-0.85158,-0.15736,0.1665,0.72016,-0.0031194,0.87936,0.48837,0.9225,-0.5465,-0.64412,-0.073544
0.99227,-0.7884,-0.4117,0.19774,-0.66047,0.23618,-0.15183,0.28039,-0.44358,-0.51299,-0.53744,0.91822,0.40369,0.079999,0.90935,-0.47434,-0.6831,-0.47051,-0.91951,0.75701,-0.62565,-0.38002,0.67147,0.99444,-0.15106,0.15866,0.775,-0.95761,-0.95747,0.79445,0.70566,0.71417,-0.39838,0.57098,0.020072,-0.43137,-0.47388,0.91832,0.78698,-0.77721,0.71716,-0.51909,-0.35928,0.97601,0.46905,0.85879,-0.18914,0.94936,-0.40689,0.43566
-0.84365,-0.78061,0.061259,-0.70225,-0.70469,0.13429,-0.31787,-0.67412,-0.85434,0.50356,-0.89558,-0.002652,-0.82704,0.87418,-0.75224,0.64793,-0.90096,-0.61868,-0.67268,0.42202,0.96079,0.1146,0.44133,0.73966,0.45419,0.74074,-0.49815,0.3745,-0.4204,0.76467,0.6464,-0.91452,0.67773,-0.63399,-0.75617,0.66817,0.9513,0.42894,-0.68063,-0.84939,0.89598,-0.25027,0.32718,0.076199,-0.95348,-0.7432,0.37056,0.019697,-0.90838,-0.1431
-0.11464,-0.87282,0.66485,0.79943,-0.047841,0.92393,0.082708,0.13182,0.50245,-0.60173,0.80351,0.47722,0.23357,0.32191,-0.62752,-0.34205,0.36177,-0.1014,-0.12375,0.32216,0.42565,-0.24362,0.77525,-0.99986,0.8735,0.37955,-0.86776,0.10913,0.86296,-0.32966,-0.96686,-0.71592,0.35962,-0.71823,-0.6885,0.5147,-0.67729,-0.38707,-0.15542,0.99238,-0.24779,-0.59053,0.81127,-0.73421,-0.78385,-0.55803,-0.18792,0.64304,0.59996,0.071883
-0.78669,-0.19084,0.19498,-0.099213,0.8162,0.49221,0.85234,0.86323,0.66238,0.96588,0.58658,-0.97449,-0.65246,-0.21069,0.29301,0.8826,0.56351,0.53731,-0.34866,-0.12085,0.6513,-0.50847,-0.67429,0.35995,-0.40694,-0.51406,0.4543,0.53087,0.028039,-0.146,-0.05058,-0.565,-0.34308,-0.88851,-0.18171,0.73182,0.58908,0.65619,0.25782,0.1992,-0.59341,-0.48272,0.37082,-0.32159,-0.78531,-0.34398,0.98998,-0.59273,0.59219,0.90057
0.9238,-0.10325,-0.32938,-0.58866,0.10435,0.32503,-0.403,0.5662,0.84468,0.41928,-0.25397,0.21071,0.3028,-0.48202,-0.74366,-0.51178,0.61473,0.25587,-0.82014,0.12559,0.36644,0.35236,-0.59752,0.30976,-0.3756,-0.31456,0.5336,0.58268,0.7506,0.60753,0.88824,0.55492,0.076527,0.23675,0.38731,-0.16613,0.84887,0.61578,0.19356,0.57794,-0.64166,0.69463,0.99825,0.45802,-0.43637,-0.32373,0.67578,-0.61614,-0.20858,-0.003918
-0.99073,-0.26837,-0.40155,0.7993,-0.93412,0.046627,-0.32383,0.37137,-0.34595,-0.64913,0.66411,0.1529,-0.0026072,0.69582,-0.83736,0.91422,-0.46989,-0.3706,0.62064,0.98062,0.3788,-0.47741,0.76392,-0.17637,0.099393,0.09088,0.79665,-0.50688,-0.2438,0.84619,-0.082759,-0.28479,0.67563,0.17988,0.56154,0.48503,-0.067385,0.81851,-0.40852,0.72254,-0.38741,-0.14592,-0.0012119,-0.16871,0.72556,0.73461,-0.50802,0.77964,-0.36013,0.63502
0.54982,0.52701,-0.094815,0.52517,-0.89227,-0.48021,0.71896,-0.067561,0.60814,0.71659,0.50767,0.61476,-0.43098,0.89011,0.31845,0.02165,0.7918,-0.41591,-0.20088,0.91463,0.061752,0.92297,-0.076082,-0.047263,0.10516,-0.86485,0.53365,-0.60039,0.76902,0.73345,0.69994,-0.94935,-0.51405,-0.24993,0.27273,-0.86013,0.22713,0.28563,0.56405,0.65414,0.70062,0.31397,-0.4542,0.84944,-0.78049,0.35143,-0.16705,0.46501,0.98377,0.47145
0.63461,0.25579,-0.15471,0.76497,0.61013,0.92399,-0.31904,-0.47936,0.076501,0.81882,0.24373,0.30994,0.66112,-0.246,-0.9452,0.12916,0.21597,-0.84352,0.31063,-0.32636,-0.62229,-0.0048465,-0.6259,-0.22346,0.2808,-0.1791,0.89377,-0.26612,0.069548,-0.00069945,0.071105,0.66756,-0.96103,-0.95476,0.16361,0.91691,-0.17902,0.25737,-0.23646,0.87385,0.051205,0.062543,0.38682,-0.85942,0.14818,-0.96603,-0.26005,0.50452,0.10183,-0.6836
0.73739,0.54396,-0.28079,-0.4301,-0.09725,0.080408,-0.72376,0.13854,-0.07341,0.92333,-0.21181,0.75646,0.63672,-0.86544,0.97036,0.98743,-0.9712,-0.65611,0.13369,-0.68909,-0.013969,-0.14446,0.44976,-0.095886,0.1933,-0.52498,0.071466,0.43914,0.78521,0.16897,-0.1318,-0.2736,0.21496,-0.6815,0.94947,0.37438,0.93845,-0.76306,0.96954,-0.92829,0.65688,0.87404,0.99003,-0.24121,0.84391,0.034879,0.5836,-0.1922,-0.97084,0.58325
-0.83113,0.86571,0.11664,0.34645,-0.23471,-0.93946,0.015598,-0.50246,0.6415,0.1412,-0.28144,0.80475,0.87634,-0.63684,0.078662,0.54197,-0.31194,0.44256,-0.99376,-0.16584,0.11908,0.13558,0.76711,-0.94648,-0.67765,-0.022053,0.91956,-0.74927,-0.79447,0.84951,-0.95113,0.57712,0.077586,0.013546,0.059276,-0.47994,0.3064,0.83794,-0.58974,-0.72058,-0.78625,-0.33316,-0.57924,0.13032,0.95674,0.024591,-0.93578,0.44357,0.71835,-0.97263
-0.20043,0.94548,0.48509,0.32856,0.57929,0.39263,0.71331,-0.3614,0.90381,0.12576,-0.8223,-0.69553,-0.99935,0.1515,-0.25233,-0.3724,0.067329,-0.8211,0.3027,0.10895,0.65656,0.22608,0.59602,-0.14943,-0.16418,0.61213,0.95638,-0.14021,-0.57591,-0.66777,0.0087196,0.75932,-0.5473,0.57434,-0.42326,0.47125,0.54282,0.24796,0.5595,0.45088,0.23428,-0.27818,-0.16854,0.51318,0.8088,-0.20792,0.59295,-0.16633,0.18762,0.44698
-0.48026,-0.61594,-0.15133,-0.75437,-0.27143,0.039432,-0.23137,0.8216,-0.84745,-0.64668,-0.31665,-0.61484,0.28078,-0.62823,0.41347,-0.88425,0.25553,0.83562,-0.36581,-0.9405,-0.59426,0.61399,0.68594,-0.78839,-0.26189,-0.2443,0.0442,-0.96729,0.40321,-0.25128,0.75297,0.35302,0.83988,0.52408,-0.60758,-0.042763,-0.16965,-0.48483,0.69004,0.74419,0.13365,0.49299,-0.67598,0.46733,-0.89866,0.84142,-0.93189,0.97318,0.72274,-0.015114
0.60014,-0.72225,-0.14129,-0.18536,0.0647,-0.88194,0.39138,0.77044,0.41734,0.027358,0.097341,0.58195,-0.98529,-0.4171,0.89482,-0.91185,-0.10653,-0.14065,-0.46813,0.73341,0.055492,0.76157,0.076093,-0.91378,-0.83947,0.035956,0.69072,-0.85796,-0.2773,-0.48118,0.8165,0.090488,0.87199,0.86865,-0.56925,0.74275,-0.70186,0.90261,-0.07743,-0.25179,-0.47813,0.72786,-0.50056,-0.23751,-0.17509,0.98351,-0.96307,0.078106,0.5541,-0.32519
-0.13717,0.39253,-0.75025,-0.44943,0.42331,0.78007,0.25581,0.58918,-0.53015,0.096944,-0.078905,-0.87859,-0.78716,-0.076672,-0.23545,0.62589,0.62221,-0.84055,-0.079104,0.78883,0.61562,-0.68004,-0.58082,0.11224,-0.52738,-0.8108,0.79605,0.42061,-0.99721,0.66096,-0.42959,0.79778,-0.022741,0.59036,-0.12467,-0.35489,-0.011362,-0.90759,0.35825,-0.56762,-0.99538,-0.95589,-0.21258,0.80931,-0.3767,0.10939,-0.1051,-0.15259,-0.79019,0.50963
0.8213,-0.81236,-0.95113,0.43334,0.74295,-0.3396,-0.099224,0.85162,-0.20221,-0.66945,0.2909,-0.22035,-0.78641,-0.30605,0.38582,-0.17585,-0.71034,0.14429,0.24632,-0.0056192,-0.28979,-0.82165,0.060891,0.22257,0.98868,0.81819,0.86246,0.6059,-0.23138,-0.85965,-0.73459,-0.80101,0.39526,-0.091477,0.1339,0.12205,0.69739,-0.95815,0.59431,0.15202,-0.42549,0.69905,-0.31967,-0.61396,-0.15355,0.1416,0.67503,-0.85804,-0.21161,0.41298
-0.63631,0.050809,-0.41963,-0.43323,-0.34262,-0.5406,-0.052764,-0.64232,-0.46375,-0.012214,0.027042,-0.40007,-0.26578,-0.36367,0.20414,-0.23167,0.94966,0.66354,0.60371,-0.58143,0.09551,-0.37373,0.6866,0.47766,0.81861,-0.58474,-0.084721,0.82039,-0.35971,-0.43794,-0.99973,-0.81812,0.033171,-0.3112,0.83117,-0.5083,0.35557,-0.8239,-0.52885,-0.94871,0.64254,0.61525,0.85705,0.7807,0.8296,-0.53574,0.592,0.6914,0.95197,-0.11488
-0.47239,0.060688,-0.36496,0.7924,0.30024,-0.7721,0.89941,0.035082,0.66503,0.070235,0.62885,0.46836,-0.52078,-0.080171,0.55052,0.046253,0.66752,-0.30526,0.12233,0.44319,0.43488,0.21471,-0.56932,-0.48616,0.58157,-0.23587,0.51832,0.82425,-0.21331,0.11009,-0.36408,-0.93152,-0.42953,-0.73428,-0.36781,-0.73102,-0.10814,0.035686,0.50446,-0.91299,0.79023,0.085566,-0.094552,-0.48365,-0.43068,0.59641,0.87374,0.31494,0.02098,0.64319
-0.70892,0.72228,0.30738,0.65316,0.94967,-0.37815,-0.833,0.25401,0.99075,-0.60239,-0.80563,-0.79158,-0.30772,-0.52821,0.18367,0.7843,-0.3198,0.55978,-0.95039,0.39943,-0.59498,-0.24252,0.43345,0.45252,-0.72971,0.32056,0.87759,0.25907,-0.6375,0.23793,0.060216,-0.35165,-0.9811,0.12247,-0.43795,-0.52478,-0.0058453,0.75733,0.84012,0.8669,0.99162,-0.13243,0.053133,-0.17269,0.1499,-0.52432,-0.59738,-0.26539,-0.21306,0.63205
-0.72786,-0.030293,0.91387,-0.21995,-0.84807,-0.54314,-0.44034,0.82636,0.2995,0.24634,-0.072573,0.58515,-0.50076,-0.9445,-0.24764,-0.18816,0.23248,0.41668,0.58708,-0.078506,0.28751,0.85109,0.72534,0.42651,0.10068,0.51675,0.6214,-0.73701,-0.58125,-0.18043,0.65835,-0.66787,-0.4141,-0.58477,0.2378,-0.27265,-0.68774,-0.19564,0.98928,-0.1967,-0.98312,0.20487,0.0023083,-0.99344,0.61309,0.14662,0.72536,0.39942,0.11053,0.63235
0.73858,-0.21309,0.87146,-0.0041941,0.17404,0.30399,-0.10599,0.32794,0.40791,-0.94737,0.17963,0.56546,-0.22587,0.31691,0.7013,0.20878,-0.39249,0.18188,-0.45382,-0.65881,-0.99982,-0.88597,-0.057471,0.007529,-0.89232,-0.65386,0.86078,-0.87573,0.18745,-0.48314,0.34717,0.99616,0.33297,-0.76399,-0.55911,0.37618,0.39573,0.12265,0.76593,0.56984,0.46569,-0.32979,0.62065,0.091673,0.43726,0.23886,-0.48839,-0.45285,0.95087,0.002121
0.15941,0.34286,-0.084227,0.38961,-0.17223,-0.86768,0.17514,-0.22161,0.86461,-0.36242,-0.62566,0.064795,-0.15792,-0.68239,-0.54853,-0.81039,-0.82156,-0.24601,0.64582,0.58874,0.026354,0.98803,-0.078992,0.78554,0.35311,0.03476,-0.10609,0.55509,0.18893,-0.16651,0.82603,-0.16903,-0.68982,0.53531,-0.65597,-0.92196,-0.59062,0.19631,0.0068038,-0.51474,-0.83077,0.55621,0.60968,-0.30999,0.80229,-0.092544,-0.88064,-0.7101,-0.10422,-0.67256
0.09972,0.48252,-0.51904,0.66874,-0.38173,-0.44914,0.75527,0.48002,0.37531,0.065999,0.22266,-0.4933,0.28015,0.60533,0.59392,-0.32804,0.043052,-0.21235,0.37711,0.777,0.13966,0.33392,0.88506,0.55877,0.64456,0.99068,0.66777,0.4843,-0.65506,-0.23589,0.51228,0.50867,-0.54884,-0.085489,-0.96716,0.37747,0.35475,-0.8499,-0.98824,0.21709,0.2667,-0.80656,-0.76436,0.29118,-0.88922,0.50883,0.93736,-0.3905,0.72816,0.16805
-0.71009,0.040105,0.5278,0.21926,-0.47233,-0.43636,-0.061799,0.63527,0.13671,-0.34645,-0.89612,-0.85809,0.57511,-0.18284,0.99376,-0.71032,0.65058,-0.14338,0.2078,-0.71497,-0.98593,0.2343,0.25669,-0.01028,0.8228,0.41522,0.97556,0.25186,0.866,-0.80733,-0.66298,0.38663,0.75524,0.45169,0.032667,-0.47836,-0.75098,-0.21702,-0.96983,0.78637,0.61017,-0.09609,0.2367,0.86437,0.7202,0.13174,-0.86899,-0.77617,-0.71415,0.81824
0.70606,-0.30457,0.51865,0.14947,0.51753,0.76013,-0.12516,0.20069,-0.2383,0.20438,0.15145,0.25161,-0.46001,-0.34522,-0.43738,-0.51024,0.52785,-0.15395,-0.2261,0.87934,0.78494,-0.70423,0.61277,0.52301,-0.70559,-0.83887,-0.26072,0.45819,-0.88757,-0.73743,0.92803,0.54129,0.21146,-0.78655,-0.99517,0.71318,0.19094,-0.29003,-0.80813,0.25884,0.65993,0.5239,0.54546,0.17542,-0.98449,0.55573,-0.54092,0.96641,-0.80865,-0.42074
0.24411,-0.70001,0.4813,-0.34792,0.99043,-0.11134,0.49237,-0.83001,0.26916,-0.27613,0.68469,-0.95064,0.68796,0.49203,0.42076,-0.24206,0.89528,-0.56215,-0.86893,-0.99948,0.66639,-0.94201,-0.19692,0.33409,-0.39028,-0.91338,-0.65847,-0.59397,-0.59655,0.2198,-0.30347,0.82452,0.29363,-0.12172,0.112,0.092229,0.54584,-0.51042,0.57392,0.84829,0.13444,0.25167,-0.43032,-0.47879,0.43578,0.46839,-0.93384,0.62163,-0.30454,-0.29162
-0.2981,0.17218,0.48738,-0.087151,-0.62686,0.51183,-0.064179,0.84472,-0.27354,-0.73016,-0.00054805,-0.87592,0.48094,0.4927,0.32928,-0.45936,-0.33291,-0.0064707,0.99719,-0.12239,0.55033,0.14494,-0.35721,0.95622,0.55974,-0.017689,0.64633,0.58999,0.016504,0.31239,0.19698,-0.37864,-0.86163,0.11478,0.11147,-0.079003,0.15916,-0.78394,0.10719,0.99161,-0.47991,-0.99702,-0.46176,0.79989,0.4218,0.93081,-0.74436,-0.064469,-0.85449,-0.34041
0.026499,-0.47571,-0.78816,0.42759,0.56229,0.20659,0.72165,-0.8928,-0.18476,0.82763,-0.12195,-0.74078,0.6522,-0.65209,-0.17033,-0.5688,-0.22052,-0.92026,0.32209,-0.97766,0.57627,-0.94004,-0.24239,-0.76586,-0.025543,-0.10681,0.17411,0.94914,0.51843,0.68199,0.46278,-0.59057,-0.56291,0.71117,-0.85254,-0.69467,0.36787,-0.77542,0.43904,-0.69982,0.56906,-0.96566,-0.067767,-0.96551,-0.64893,0.526,0.36007,-0.23918,0.088879,0.45411
-0.19638,-0.91109,0.36312,0.76881,-0.6084,0.56653,-0.066976,0.05405,-0.2626,0.28112,-0.70189,-0.098772,-0.63562,-0.76491,-0.0034602,0.26746,-0.69917,0.12963,-0.54166,-0.53097,-0.25274,0.42307,0.43794,0.73865,0.098348,-0.026403,0.92322,-0.15971,-0.7079,-0.00036424,0.74163,-0.85424,0.55999,0.82386,-0.20618,-0.48842,-0.14539,-0.46559,-0.54304,-0.95041,-0.66159,-0.086292,-0.2575,-0.54416,0.73931,0.13372,-0.94341,0.38491,0.93079,0.39671
-0.84807,0.50987,-0.073479,0.44171,0.98472,-0.77214,-0.003791,-0.76229,-0.063202,0.31755,-0.94344,0.34467,-0.86913,-0.65192,0.89825,0.59943,-0.33259,-0.90171,-0.81549,0.41397,-0.69538,-0.57192,-0.61387,0.13571,0.75643,-0.66822,-0.021741,-0.50856,0.86215,-0.3856,-0.3332,0.1744,0.25815,-0.29734,0.54441,-0.21671,-0.44639,-0.46722,-0.97462,0.82253,-0.45148,-0.55687,-0.041519,0.43372,-0.68688,0.19939,0.70381,-0.79045,-0.43765,-0.44247
-0.52017,-0.51443,-0.57567,-0.96277,0.60452,0.95713,-0.025139,-0.23971,0.0068277,0.35066,0.51334,0.71222,0.2207,0.25482,0.90636,-0.58297,0.10736,0.74456,-0.51804,0.38833,-0.29548,-0.48963,-0.020026,-0.7597,0.97658,-0.27869,-0.49295,-0.039756,-0.1561,-0.66047,-0.073915,0.084973,-0.85877,-0.25528,0.14507,0.92921,0.95608,0.87216,-0.75955,-0.70401,-0.99019,-0.25716,-0.12358,-0.80074,0.82393,0.18256,-0.43556,-0.94321,-0.83973,0.73431
-0.75336,-0.1152,-0.80296,0.34955,-0.15155,0.69719,-0.54106,0.62567,0.82107,0.48912,0.59221,-0.0031092,0.40311,0.68378,0.46585,0.79251,0.10059,0.72005,0.80514,-0.46976,0.2902,0.91719,-0.75846,0.94066,-0.9617,0.76144,0.35645,0.33794,-0.887,-0.90247,-0.66623,0.28817,0.31444,-0.79553,-0.19386,0.038848,0.92983,-0.62765,0.26596,-0.82011,-0.20488,-0.11754,-0.48955,0.43404,-0.53238,0.9233,-0.15602,-0.60174,-0.7084,-0.8294
-0.63218,0.37559,0.64715,-0.12298,0.45773,-0.89871,-0.8289,-0.51181,-0.58714,0.68436,-0.41289,-0.90243,-0.77676,0.020166,-0.23064,0.49142,-0.67916,-0.32348,-0.5653,-0.34685,0.86387,-0.63622,-0.72016,0.67993,-0.29735,0.4887,0.82898,0.70475,0.3484,-0.54837,-0.067221,0.19601,0.039319,0.31519,0.046644,-0.75823,0.45611,0.01487,-0.96958,0.43139,-0.9469,-0.87862,-0.71772,-0.52084,0.37212,-0.11677,0.30663,-0.47299,-0.67391,-0.86337
-0.52009,-0.28154,-0.64998,-0.12436,-0.0032928,-0.067596,-0.86523,0.76885,-0.32279,0.033314,-0.76959,-0.37234,-0.80835,-0.66847,-0.91983,0.072772,-0.76582,0.94806,-0.040954,-0.81353,-0.81336,0.59691,0.89439,-0.87537,0.069294,-0.16646,0.23415,0.89065,-0.44038,-0.26606,-0.087259,-0.099961,0.89506,-0.56238,-0.21503,0.82979,0.44955,-0.70481,0.88053,-0.64997,0.7094,-0.27192,-0.46766,-0.17432,0.2798,0.38496,0.84319,0.97477,0.077156,0.93651
-0.16547,0.47268,-0.67286,-0.76593,0.61798,-0.34869,0.77678,0.42529,0.14825,-0.69626,-0.24982,0.28326,0.19567,0.42861,0.16587,0.93993,-0.2029,0.90955,0.81846,-0.9168,0.47756,-0.91991,0.26189,-0.44385,0.49564,0.81471,-0.355,-0.74254,0.56017,0.13569,-0.74436,-0.6749,-0.9583,0.73286,-0.86595,-0.086785,0.28993,0.8414,0.99913,-0.68056,-0.59022,-0.24626,-0.30303,-0.42112,-0.68481,-0.52829,-0.4153,-0.58672,-0.062078,0.25015
-0.90069,-0.21059,0.33197,0.62936,-0.28698,0.26041,-0.53366,-0.2437,-0.026135,-0.23867,0.65779,0.57277,0.62447,0.81407,0.12943,0.12977,0.66277,0.97724,-0.61244,0.51856,-0.88947,-0.38168,-0.12269,-0.18074,0.94003,-0.81139,-0.018976,0.39329,0.92568,0.13943,0.27986,0.52984,0.45744,-0.21319,0.55704,0.80937,-0.8283,0.85892,-0.24356,-0.042136,0.7207,-0.39752,-0.49496,-0.69676,-0.42063,0.54123,0.9336,-0.89296,-0.46937,0.54036
0.80543,0.36683,0.78878,-0.35029,-0.85351,-0.5394,0.72319,-0.50216,-0.47556,0.64204,0.68355,-0.4217,0.62916,-0.56292,-0.28963,-0.56462,-0.63,-0.68456,-0.10402,-0.35025,0.51432,0.93418,0.41552,0.25362,0.39029,-0.63735,-0.18509,-0.83983,0.37649,0.55755,0.79298,0.9666,-0.20296,-0.09223,0.52862,-0.4162,0.055808,-0.7265,0.79041,0.89746,-0.88775,0.83678,-0.96456,-0.3804,-0.60296,-0.68,0.55883,-0.82771,0.34908,-0.70922
0.88957,0.40809,0.033116,-0.50754,0.18198,0.15977,0.42347,-0.49429,0.15919,-0.65727,0.33048,-0.004264,-0.82113,0.74192,0.7604,0.71553,0.0015715,-0.99416,0.2356,0.043644,-0.073021,-0.46602,0.059293,0.83821,-0.45346,0.89317,-0.83212,-0.79287,-0.0031549,0.18048,-0.14514,-0.71371,0.37449,-0.63649,0.13706,0.56438,0.70309,0.74314,0.1801,0.48214,-0.55298,-0.045299,-0.098505,0.26688,0.86362,-0.84269,-0.82737,-0.28383,-0.75091,-0.3723
-0.018272,-0.11539,0.4054,-0.31457,0.82038,0.20631,0.74563,0.53449,0.75666,-0.34005,0.92028,0.63687,0.46256,-0.57633,0.24906,0.724,-0.74737,-0.50364,0.18843,0.90378,-0.90999,-0.75625,0.30485,-0.1697,0.90228,-0.7983,0.18392,-0.7376,-0.80194,-0.77867,-0.64831,0.65541,-0.85383,-0.86512,0.22893,-0.88819,-0.58003,-0.97529,0.67011,0.34467,-0.90944,-0.63922,0.80916,-0.95482,0.081469,-0.37869,-0.64222,0.6692,-0.49647,-0.99869
-0.021495,-0.96084,-0.69282,-0.24862,-0.61247,0.19976,0.876,-0.90028,-0.8781,0.93294,0.88624,0.19026,0.80771,0.67333,0.24803,-0.3734,0.72926,-0.30742,0.33175,0.33796,0.68406,0.21476,0.55637,0.423,0.81534,-0.22392,0.75803,0.030111,-0.4245,0.28136,-0.4102,0.76227,0.51609,0.56911,0.17774,-0.57391,0.65348,0.44407,-0.035308,-0.85931,0.50198,-0.40592,0.31413,0.24832,0.90513,-0.35151,-0.61939,-0.94194,0.17834,0.11891
-0.32456,-0.33828,0.90691,0.093108,-0.13526,-0.10314,-0.72062,0.37058,-0.11825,0.61259,-0.7746,0.072849,-0.095536,0.7186,-0.40852,-0.34603,0.53329,-0.53332,-0.46464,-0.053757,-0.67058,0.2907,0.23604,0.94175,-0.085151,-0.42155,0.10662,-0.036438,0.076225,-0.85596,-0.88252,-0.8591,-0.89855,0.60373,0.23326,0.55309,-0.58718,0.75717,-0.88112,-0.38779,0.39611,0.6586,-0.71314,-0.59962,-0.56507,-0.6462,-0.80164,-0.73438,-0.2978,0.84424
0.80011,-0.15138,0.081768,0.12384,0.49832,-0.92915,-0.2122,0.24056,-0.83148,-0.55562,0.29657,-0.33825,-0.85862,0.046755,-0.85064,0.68003,0.12871,0.51178,-0.15227,0.29874,-0.76985,0.74885,0.0041747,-0.12906,0.46634,-0.85383,-0.40106,-0.10823,-0.97734,-0.26831,-0.87965,-0.044269,0.28482,-0.073162,-0.52045,0.39362,-0.049009,-0.22511,-0.079327,0.87367,0.83758,0.23625,-0.48301,-0.20589,0.29007,-0.50798,0.8198,-0.62728,0.045548,-0.10936
-0.26151,-0.45946,0.35947,-0.20836,-0.92163,0.02763,0.96113,0.49337,0.12648,0.99955,-0.038392,-0.17662,-0.51744,-0.045274,-0.41259,-0.014934,-0.22086,-0.54814,0.59865,0.33127,-0.45688,0.79466,-0.029255,0.27076,0.11648,-0.61078,0.79402,0.59635,-0.43431,-0.42539,-0.94668,0.47751,0.0015498,0.70485,0.58217,0.81577,-0.40014,-0.50714,-0.36258,0.71387,0.81785,0.3272,0.58253,-0.068339,0.57245,0.98368,-0.90315,0.90102,-0.32966,-0.30147
-0.77759,-0.60589,-0.92687,-0.20374,0.89265,-0.18454,0.28959,0.95451,0.078621,-0.87252,-0.86696,0.58801,0.46373,0.77977,-0.53052,-0.8962,-0.019725,-0.10311,0.86463,-0.53971,-0.37123,-0.89364,-0.7797,0.80311,0.98779,-0.16503,0.58861,0.057876,0.17914,0.48288,0.10093,0.46747,0.06018,0.2513,0.41129,0.21777,-0.31006,-0.77655,0.82032,0.78169,0.61105,0.23241,0.45476,0.59672,-0.19948,0.22261,0.82005,0.99378,-0.95293,0.026123
0.5605,0.64344,0.61841,0.030734,0.52735,-0.78391,0.79282,-0.23217,0.53612,-0.14903,0.79554,-0.31358,-0.91902,-0.86985,-0.30821,0.55604,0.77381,-0.48111,-0.060562,0.60978,0.21218,0.51903,0.8331,0.74317,-0.2214,-0.41415,0.55162,0.33769,-0.6559,-0.86603,0.1261,0.63249,0.4765,-0.63902,0.47575,0.089114,0.8559,0.69356,0.79572,0.17717,0.99935,-0.47747,0.64624,-0.55799,0.67359,-0.033992,-0.75592,0.90107,-0.19664,-0.82144
-0.22052,-0.14016,0.49724,0.31506,0.11764,-0.080249,-0.035539,-0.47959,-0.53382,-0.19132,-0.0055397,-0.074787,-0.15095,0.018912,0.69698,-0.14666,0.8101,-0.30841,-0.38739,0.0055701,0.35493,0.71781,-0.13476,-0.71457,0.76337,0.40428,0.19794,-0.033325,-0.6598,0.51433,-0.39081,0.06696,-0.45086,-0.93986,-0.72316,0.50624,-0.93976,0.31932,0.30234,-0.67483,0.60153,0.745,0.87261,-0.23523,-0.6739,-0.51147,-0.29267,0.91882,0.009367,0.52757
-0.51662,0.77554,-0.75963,0.90183,-0.63231,-0.098234,-0.97181,0.75494,0.17472,-0.19941,0.54261,-0.26435,0.08043,0.2416,-0.67927,-0.44008,-0.0032221,0.80591,-0.12126,-0.13194,0.97528,-0.036554,-0.146,-0.5988,0.78654,-0.52057,0.11444,-0.33463,0.35269,-0.51857,0.50902,0.12167,-0.52393,-0.74044,-0.98902,0.75452,0.44007,0.55932,-0.50789,-0.64791,-0.35417,-0.98926,-0.61766,0.81357,-0.59337,0.94782,-0.53646,-0.54649,-0.74082,-0.22321
-0.19218,-0.21763,0.05009,0.4447,-0.0041024,0.10228,0.24576,0.61219,-0.082052,-0.77615,-0.87928,0.35914,0.90766,0.46713,-0.68427,-0.33298,0.058454,-0.9746,-0.38628,0.41807,0.98652,-0.84981,-0.94143,0.24186,-0.228,0.91897,-0.40058,-0.4824,0.13919,-0.53818,0.34221,-0.30695,0.51989,-0.36879,0.47704,0.78755,-0.24757,-0.28287,-0.53195,0.49513,-0.94971,-0.26949,0.053887,-0.75225,-0.31204,0.43083,0.12145,-0.47905,0.22594,-0.70432
-0.80709,0.53823,-0.34833,-0.19984,0.035691,0.61081,-0.53781,-0.077758,0.72196,-0.15138,-0.47509,0.13556,-0.58219,-0.54001,0.017319,-0.26612,0.8194,-0.73555,-0.44997,0.11053,0.51507,-0.81856,0.020853,0.55006,0.4551,-0.38908,0.095315,0.94741,0.10334,-0.97602,0.87968,0.10151,0.92019,0.46307,0.62157,0.71166,0.17606,-0.63173,0.09687,0.89057,0.46565,0.18394,-0.43878,-0.90989,-0.50174,0.39678,0.14662,-0.23266,0.92691,-0.22987
-0.73605,-0.20642,0.092899,0.66374,0.98849,0.4017,0.054868,-0.81808,0.32167,0.22709,0.30214,0.30355,-0.76734,-0.95626,0.2066,0.58958,0.1572,-0.22387,-0.72251,-0.48999,-0.44988,-0.59957,0.92741,-0.50638,0.8253,-0.69017,0.98366,-0.47128,0.93488,-0.73505,-0.029691,-0.95779,-0.66759,0.54596,0.12944,0.36649,-0.34011,-0.97964,-0.21435,0.31596,-0.054427,0.84968,-0.18323,0.37921,-0.3086,-0.65032,-0.39446,0.75124,-0.82069,-0.45498
0.8841,0.61703,-0.20224,-0.73132,0.7097,0.74447,0.44998,0.12854,-0.29224,0.97612,-0.73279,-0.017773,0.29244,-0.72202,-0.67721,-0.92262,0.55157,0.68124,-0.66691,-0.8496,0.90803,0.55657,-0.4493,-0.2611,0.80825,0.11102,-0.033174,0.57988,0.25684,-0.58123,0.036176,0.47354,-0.24281,-0.70286,-0.88864,-0.18477,0.72985,-0.82817,0.50959,0.087664,-0.21482,-0.08399,-0.52029,-0.40376,0.97276,-0.059223,0.5469,0.9182,-0.38268,-0.40151
0.91227,0.51015,-0.16981,-0.87907,0.92481,-0.89562,0.21483,-0.62523,-0.30563,-0.5602,0.27709,-0.20308,-0.78318,0.53901,0.27091,0.45334,0.32279,-0.57347,-0.012105,0.1782,-0.17784,-0.18544,0.48682,-0.31781,-0.8371,0.58109,0.36955,-0.0058622,-0.3509,-0.57163,0.57841,0.66794,-0.8064,0.5916,-0.35381,-0.90429,0.70991,-0.34107,-0.21485,0.19531,0.72003,-0.15158,-0.28489,0.99312,0.2479,0.61018,-0.97227,0.26134,0.058428,-0.97693
0.15042,-0.24521,-0.63852,-0.83151,0.35788,-0.56064,0.17673,0.063379,-0.49256,-0.29184,-0.23011,-0.045032,0.96699,0.93953,0.68788,0.74537,-0.060686,0.87047,-0.82683,0.34848,-0.56675,0.65408,-0.76639,-0.087221,-0.93332,-0.11226,-0.039966,-0.35843,0.042031,0.81159,0.14234,0.67264,0.86912,-0.66931,0.86723,-0.52314,0.096199,-0.39834,-0.46916,-0.53079,-0.88508,0.30992,-0.67136,-0.63214,0.19253,-0.78058,-0.46568,-0.44276,-0.10517,-0.52225
-0.88044,-0.56796,-0.48923,-0.6722,-0.193,-0.080716,-0.13313,-0.28993,0.90506,-0.46752,0.5314,-0.86682,-0.50331,-0.22641,0.56454,-0.42837,-0.56046,0.9396,0.85368,0.17603,0.25826,-0.70406,0.53866,-0.65835,0.14482,0.99164,0.49304,0.23257,0.72987,-0.44445,0.53299,-0.93376,0.60583,0.43421,0.70552,-0.97208,-0.91317,0.013142,-0.30622,0.63954,-0.23091,0.52847,-0.99494,0.11029,0.15458,0.59002,0.86416,-0.81397,0.87993,-0.076212
-0.53044,0.58081,-0.95893,-0.35156,0.86996,0.91707,-0.51165,-0.37043,-0.4036,-0.417,0.30583,-0.17794,0.21271,0.98686,-0.47087,0.3137,0.20518,-0.24948,-0.70305,0.067405,-0.97026,0.46583,0.53144,0.49121,-0.98142,-0.12683,-0.57716,-0.98621,0.98822,-0.8058,0.84033,0.82434,0.46041,-0.84289,0.37355,-0.2366,0.067161,-0.22679,0.86853,0.57699,-0.71632,-0.24071,-0.18668,0.1826,-0.19393,0.73606,0.67661,-0.59544,0.44221,-0.71832
-0.29368,0.89861,0.84735,-0.39655,-0.041031,0.58009,-0.14208,0.45348,-0.68319,-0.62322,-0.23702,0.93818,0.63339,-0.34721,-0.3706,-0.53623,-0.63148,0.96973,-0.67904,-0.054767,-0.9134,-0.70022,0.081533,-0.80404,-0.60334,-0.39112,-0.50303,-0.87413,0.67698,0.56564,-0.57939,-0.81015,0.58943,-0.21227,-0.66552,0.81425,0.65054,0.87459,-0.25229,0.17812,-0.90864,-0.091862,-0.44076,-0.0019264,0.090892,-0.8053,-0.95423,0.48715,0.47577,-0.24837
0.64239,-0.34487,0.3074,-0.97664,-0.53642,-0.096251,-0.97965,0.031546,-0.27741,-0.95428,-0.39996,0.56144,0.66011,-0.72568,-0.63361,0.24391,-0.60498,-0.75583,0.43545,-0.35238,-0.63948,0.67686,-0.66136,0.78054,-0.95864,-0.50698,-0.80432,0.84005,-0.30521,0.33504,0.21623,0.70182,0.14714,0.63166,0.35933,-0.39281,0.13255,-0.68092,-0.034947,-0.12748,0.39599,0.2876,-0.64545,-0.074881,0.55485,-0.86831,0.93121,0.36339,0.27826,-0.094767
-0.96919,0.34253,0.86523,0.07981,-0.20742,-0.33314,0.21764,0.58129,0.48326,-0.10119,-0.31972,0.45804,-0.021921,-0.23049,-0.10505,-0.84975,0.72398,0.52191,0.34979,-0.13803,-0.59907,0.090734,0.86024,-0.83581,0.58454,0.92165,0.41734,0.81233,0.49882,0.22535,-0.06855,0.0444,-0.27662,0.059951,-0.84086,0.73466,-0.56153,0.55942,-0.52357,0.099479,0.82702,0.47031,0.17132,-0.69446,-0.059193,-0.87943,-0.20417,0.058861,-0.92937,0.053692
-0.91395,-0.12271,-0.67298,-0.80925,0.41015,-0.88181,0.91595,-0.59101,0.4118,-0.51272,0.83785,0.5313,0.52146,0.12527,-0.34664,0.93351,-0.7487,0.15872,-0.28296,0.5298,0.43872,0.92234,-0.58358,0.56305,-0.61834,-0.55424,0.71149,0.66307,0.87883,-0.31242,0.2334,-0.96727,-0.67733,0.89471,0.12201,-0.70565,-0.35332,-0.64508,0.062498,-0.29406,-0.23291,0.26764,0.44304,-0.48288,-0.82323,-0.089939,0.030458,0.67489,0.28323,0.1028
-0.66202,0.667,0.84219,-0.70697,0.11712,0.48181,-0.80911,0.35621,0.40178,0.73745,-0.087466,0.51316,0.83022,0.26767,-0.44037,0.21994,0.29116,0.24231,-0.81908,0.99293,-0.11426,-0.84901,-0.96048,0.69736,0.90417,-0.20878,0.57807,0.82735,0.33616,0.38068,-0.59382,-0.74165,0.77274,-0.36664,-0.081916,-0.38017,-0.86991,0.61059,-0.57976,0.99158,-0.51378,0.56589,0.44252,0.44476,0.86781,0.75884,0.46331,-0.067405,-0.36282,-0.33525
0.29823,0.53771,0.58932,0.26228,0.51326,0.013589,-0.92882,-0.89503,-0.98755,0.057222,-0.11501,0.68654,0.80195,0.083213,0.86353,-0.23257,-0.12536,-0.020192,-0.9835,-0.46996,0.69099,0.86767,0.20322,-0.098245,0.54045,-0.55095,0.48569,0.35832,-0.037595,-0.53288,0.3552,0.18635,0.804,0.15633,0.33014,-0.16351,-0.25235,0.12477,-0.40959,-0.27007,0.8142,-0.93103,0.017172,0.99269,-0.9128,-0.30429,0.10646,-0.35525,-0.7978,-0.57009
0.46344,-0.66549,0.15479,0.71864,0.99096,-0.60015,0.77247,0.60234,-0.25131,0.82827,-0.091628,0.54031,-0.57152,-0.37001,-0.20062,-0.93886,0.22521,-0.5591,-0.25444,0.58413,-0.22042,-0.28115,0.21474,0.21065,0.63315,-0.45995,-0.79096,0.55412,-0.42767,-0.38394,-0.96537,0.44357,0.51716,-0.61954,-0.13177,-0.57965,-0.48295,-0.05985,0.063972,0.93235,0.40404,-0.79828,-0.34815,0.11062,0.29739,-0.12663,0.96648,0.17451,-0.83804,-0.70175
0.29549,0.72396,-0.11993,0.94844,0.92486,-0.14561,-0.50612,0.35714,0.80299,0.94786,0.89056,0.95732,0.094122,-0.68135,-0.24115,0.71513,0.47496,-0.71173,0.57661,-0.73078,0.6751,-0.86614,-0.06229,-0.29106,-0.1479,-0.16312,0.04175,0.38734,0.19031,-0.2854,-0.54678,-0.92595,-0.27642,-0.21548,-0.93859,0.53491,-0.47879,-0.28078,0.015169,-0.95052,0.79128,-0.91652,-0.090324,0.28736,0.46605,-0.7376,0.068707,0.27909,0.80429,0.12091
-0.098153,0.97974,-0.48477,0.14168,0.070134,-0.66262,-0.98217,0.89202,-0.36331,0.17085,-0.56176,-0.77728,0.56942,-0.69477,0.18569,0.20709,-0.39344,0.27035,-0.10543,-0.92893,0.49684,0.93187,0.19263,0.51819,-0.39956,0.99547,0.69326,-0.60229,-0.32719,-0.5666,0.82893,-0.64766,-0.0075502,0.99751,-0.11518,-0.51491,-0.055029,-0.25645,-0.001759,0.55568,0.89595,-0.67896,-0.40624,0.36161,-0.81355,0.3068,0.28262,-0.96503,-0.49453,-0.34272
0.094018,0.028847,0.50389,0.9937,0.92774,0.50339,0.62984,-0.81688,0.19417,-0.76205,0.76481,-0.20785,-0.61112,-0.7261,-0.86299,0.69568,-0.91406,0.60483,-0.80075,-0.092107,0.16772,0.29891,0.44692,0.17888,0.36058,0.82206,0.68723,-0.095223,0.9191,0.35456,0.53687,-0.53513,0.31737,-0.31262,-0.065867,0.77228,-0.81033,-0.23425,0.823,-0.11964,0.87338,0.67001,0.36605,0.90562,0.57109,0.074982,-0.32675,-0.92652,-0.010184,0.30735
-0.40736,0.76856,-0.54266,0.10708,-0.76875,-0.2633,-0.719,0.81688,-0.40441,0.85307,-0.96025,-0.015879,0.49378,0.41961,-0.58952,0.0092325,0.67102,0.33929,0.61166,0.12595,-0.67885,-0.15877,-0.18378,0.22314,0.71703,0.10085,-0.24451,0.57777,-0.11585,0.47203,0.066625,0.43003,-0.42207,0.81714,-0.97923,-0.40491,-0.87371,-0.48739,0.46069,0.261,0.99357,0.11887,0.84946,-0.2672,0.84965,0.45823,0.96467,-0.88973,-0.22377,0.58281
0.48939,0.17605,-0.87163,0.030917,-0.8971,0.88364,0.75973,0.019906,-0.74997,0.18712,-0.31647,-0.48381,-0.048884,-0.070271,0.44724,-0.98418,-0.26138,-0.056794,0.31891,-0.53823,0.05768,0.19288,0.19523,0.68634,0.74359,0.19267,-0.45581,-0.99615,0.92399,-0.97996,-0.86324,0.54117,-0.71389,0.39533,0.1871,-0.61864,0.63296,0.94408,0.79942,-0.37195,-0.20612,-0.65596,-0.41651,-0.061556,0.1285,-0.73575,0.77206,-0.87203,-0.47275,0.6218
-0.62209,-0.6905,0.53466,-0.33864,-0.3913,-0.96565,-0.80925,0.22981,-0.22329,0.76723,0.53205,-0.92607,0.16652,-0.77346,0.1503,0.83815,0.32268,0.88896,-0.095272,-0.71048,-0.074658,-0.30582,-0.14858,-0.086024,0.79412,-0.84171,-0.74939,0.11116,0.35277,-0.28817,-0.60083,0.17876,-0.38373,-0.94046,-0.39674,0.44824,-0.8631,0.32113,0.60985,0.84363,0.31987,0.8776,-0.048012,-0.74292,-0.091506,0.7884,-0.78658,-0.85725,-0.47377,0.36586
0.37355,-0.60027,0.3424,-0.14,0.16038,0.65811,-0.29488,-0.36786,0.63538,-0.15105,-0.31439,0.94876,-0.4789,0.40176,-0.59953,-0.17859,0.79144,0.18296,0.066725,0.35419,-0.24091,-0.56475,-0.75632,0.76558,0.68717,0.15327,0.38271,-0.1335,0.41216,-0.52009,-0.97596,0.74588,-0.30512,-0.037446,0.65187,0.91362,-0.40473,0.010573,-0.10413,-0.55335,0.6459,0.084319,-0.21691,-0.84039,0.58707,-0.084106,0.24064,0.92955,0.39905,-0.43487
-0.63298,-0.18609,0.43043,-0.016387,0.061929,0.25318,0.18684,-0.84503,0.96235,0.21451,0.23761,0.45285,-0.83036,-0.64003,0.68696,0.46473,-0.4518,-0.5465,0.053329,-0.29186,-0.81354,-0.92432,-0.30009,-0.012855,-0.029698,0.79634,0.11026,-0.88317,0.91539,0.85522,0.93314,-0.092017,-0.72092,0.35381,0.83183,0.80293,0.57514,-0.60396,-0.52999,-0.25103,0.24473,0.66052,-0.36221,0.088016,-0.43244,-0.79875,0.74225,-0.83369,-0.88654,0.04132
-0.26303,0.49741,0.28412,-0.85793,0.80242,0.077493,0.17036,0.70123,0.72398,-0.85847,-0.093958,-0.70407,-0.40373,0.60734,-0.15254,-0.69779,0.9958,0.36769,0.25936,0.020945,-0.48171,-0.69315,0.093491,0.2457,-0.022919,-0.073379,-0.98305,-0.11608,0.87975,0.52597,0.6644,0.96786,-0.56752,-0.19503,-0.46529,0.40117,-0.087255,-0.79123,-0.86575,-0.38371,0.40101,-0.36511,-0.19963,0.34461,0.9842,-0.19792,0.17766,-0.089471,0.57743,0.10362
0.25124,0.65117,-0.1619,0.77548,0.081101,0.30102,0.33536,-0.71095,-0.83236,0.84954,-0.97967,-0.70421,0.83426,0.027912,0.089502,0.63047,0.66871,-0.35871,0.29313,0.38941,-0.32833,-0.25324,-0.7458,0.12433,-0.86933,-0.20321,-0.16794,0.67919,0.66752,-0.24123,-0.10938,-0.48008,0.11164,-0.69182,-0.40797,0.62694,0.82035,0.77683,-0.4316,-0.92436,-0.02097,-0.53452,0.75519,0.68701,0.97196,0.73655,0.53118,0.91239,-0.4154,-0.036752
0.56045,0.57993,-0.21848,-0.87073,-0.13604,0.45326,0.29605,-0.25903,-0.32458,0.28416,0.19816,0.40965,-0.058964,0.096877,0.055935,0.81921,0.58269,0.49784,-0.61634,0.19059,-0.24978,0.75363,-0.83701,0.44332,-0.086038,-0.79108,-0.12176,0.23651,-0.68952,0.37191,0.98099,0.38134,-0.89763,0.12234,-0.81505,0.73285,0.10134,-0.27408,-0.13652,0.21034,0.017634,0.40399,0.90632,0.19665,0.072359,0.91489,0.49558,0.017272,0.67888,-0.71518
-0.83775,-0.36295,0.63228,-0.12763,0.085334,-0.81102,-0.13326,0.24478,-0.52774,-0.791,0.20314,-0.23801,-0.46106,-0.58431,-0.62978,0.55588,0.31323,0.99629,0.60346,0.012222,-0.70748,-0.1177,-0.42109,0.09354,0.19111,0.30447,0.56872,0.48319,0.66086,0.39775,0.58857,0.19349,-0.16529,0.89865,0.45166,0.77643,-0.14156,-0.092573,-0.089751,0.67173,0.55943,0.039567,-0.99123,-0.8752,0.7888,-0.95721,-0.7475,-0.57938,-0.030731,-0.31628
0.85877,0.068128,-0.36514,0.65326,0.42483,0.75515,-0.72048,0.9951,-0.36439,0.40045,0.29883,-0.84718,0.52594,0.56918,-0.83662,0.51425,0.087346,-0.46053,-0.60686,0.5528,-0.36646,0.27554,0.35363,0.56888,-0.77983,0.9834,0.65999,0.87127,-0.071719,0.1808,-0.022778,-0.44134,0.42316,0.91859,0.43492,-0.5391,-0.20189,-0.87041,0.9587,0.1765,-0.91903,-0.42771,0.20286,0.47529,-0.5289,0.88992,0.27348,0.99691,-0.53304,0.72985
0.55143,-0.8201,0.62908,-0.21093,-0.96665,-0.97128,0.50386,0.034688,0.9689,-0.20839,-0.31456,-0.17832,0.54434,0.052979,-0.071813,-0.1896,-0.22664,0.86374,-0.17741,0.37041,-0.43755,-0.22439,-0.085916,-0.10729,-0.31243,0.35615,0.17921,-0.34938,-0.40262,0.92411,-0.73882,-0.44158,0.75855,0.97988,0.24174,0.25295,-0.87341,0.70152,0.85381,-0.27309,0.80201,-0.94465,0.57116,-0.69283,-0.042987,0.84382,0.80713,0.93982,-0.55893,-0.5065
-0.026417,-0.77659,0.57815,0.22695,0.60184,-0.41139,-0.51643,0.98102,0.096502,-0.83019,-0.013401,-0.71402,-0.9574,0.14205,-0.93889,0.4038,0.64446,0.39277,-0.52861,-0.36101,0.64025,0.67439,-0.0015698,0.82382,-0.47187,-0.14304,-0.71585,0.49198,0.046611,0.56269,-0.57551,0.36754,0.20296,0.67203,-0.24777,-0.51212,0.43238,-0.44113,0.19515,-0.72023,0.46409,-0.69439,0.27701,-0.82979,0.81513,0.22192,-0.33249,0.3463,-0.37143,-0.62705
-0.12828,-0.72741,0.70453,0.63728,-0.71498,-0.64017,0.30092,-0.54693,0.4985,-0.57104,0.40355,0.59784,0.75997,-0.15592,-0.13003,0.13092,0.19067,-0.80948,-0.45559,0.66429,-0.31582,0.53263,-0.88304,-0.82683,0.16036,0.3096,0.18663,0.7458,0.66326,0.076855,0.66222,0.62256,-0.070056,0.30816,0.26134,-0.11464,0.43985,0.82384,0.16736,-0.76693,0.23157,0.56785,-0.76597,-0.90199,0.32749,-0.019662,-0.018224,-0.84699,0.99085,0.052591
-0.10643,0.3573,0.011273,0.77247,-0.043051,0.85259,0.71475,-0.20399,0.6837,-0.5024,0.77561,0.8605,0.59634,0.44231,0.11573,0.16947,0.56328,-0.50826,-0.98266,0.32164,0.744,-0.74883,-0.85279,0.99787,-0.12922,0.17749,0.45239,-0.13343,0.078265,-0.81172,-0.35243,-0.84752,0.63084,0.73835,0.034574,0.56557,0.48235,-0.88046,-0.77386,0.96243,0.51038,0.037504,0.42103,-0.83919,-0.12849,-0.1105,-0.54923,-0.57661,-0.62174,-0.23479
-0.3873,-0.009646,0.27132,0.86222,-0.48633,-0.86364,-0.83126,0.39314,-0.66622,-0.54669,-0.88988,-0.99056,-0.35167,-0.85372,0.27756,-0.31017,0.97535,0.86932,0.85656,0.17414,-0.46394,-0.81468,-0.32425,0.45516,-0.1698,0.49011,-0.14324,0.043119,-0.48034,0.77202,0.47754,-0.26125,-0.35575,0.72754,0.30041,0.43166,0.37875,0.23193,-0.2016,0.083385,-0.43107,-0.16635,-0.8045,-0.57342,0.70798,-0.20636,0.52802,-0.90848,0.70098,0.68866
0.017017,-0.62058,0.90179,-0.61843,-0.26182,0.16219,0.94418,-0.87072,0.8062,0.40601,-0.80328,0.30008,0.33809,0.18972,-0.93157,0.40847,0.57651,-0.040432,0.040439,-0.96184,0.55086,0.32064,-0.32786,0.11681,-0.89157,0.28174,-0.57842,0.30532,-0.29192,-0.48501,-0.68025,0.61247,-0.24722,0.52385,0.74251,-0.51073,-0.47917,0.12789,0.88576,-0.82698,-0.5875,-0.7829,0.16953,-0.22292,-0.20793,-0.69618,-0.19042,0.011421,0.68781,0.41802
0.021543,-0.0099884,-0.11207,-0.48284,0.32353,0.2743,-0.93708,0.49532,-0.78975,0.50831,0.29957,0.35706,-0.40741,0.72395,0.4198,-0.67827,0.70584,0.76506,-0.071749,0.6739,0.21842,-0.24466,0.96992,-0.71435,-0.48061,0.0073524,-0.46923,-0.061977,-0.62652,-0.072986,0.46294,0.91666,-0.72397,-0.66946,-0.33796,0.47566,-0.98026,0.33654,-0.57135,-0.48781,0.30437,0.26286,0.69513,-0.42404,-0.06279,0.74034,0.92022,0.90032,0.056633,0.37029
0.63526,-0.70478,-0.87996,0.79573,-0.66078,0.30254,0.67081,-0.1592,0.49019,0.094573,0.52814,-0.49275,0.8599,-0.1024,-0.66135,-0.99697,-0.028774,0.55859,0.047059,-0.772,-0.96406,-0.78442,0.50333,0.67527,-0.51164,0.87608,0.98637,-0.6334,-0.29869,-0.3384,-0.89261,0.98747,0.30718,-0.84105,0.11509,0.81562,-0.2998,-0.32911,-0.6591,-0.58045,0.85624,-0.74653,-0.53855,-0.70058,-0.1,-0.028652,0.22479,0.15512,0.32974,-0.38033
0.58966,-0.89005,0.7335,0.18672,-0.44243,0.72924,0.67143,0.62263,0.45874,0.10697,0.97592,0.68636,-0.43608,0.30515,0.18676,0.124,0.74751,-0.96343,-0.32638,0.68084,0.40302,0.24762,0.29306,0.45049,0.41819,0.21069,-0.038487,-0.548,-0.62056,0.51355,0.42878,-0.14886,-0.94902,0.017789,-0.94277,0.68446,0.79232,-0.92441,-0.30623,-0.37078,0.60915,0.16129,-0.60802,0.26763,-0.35203,0.71979,-0.29283,-0.12111,-0.26077,-0.97111
0.28864,0.70143,0.26238,0.0076802,-0.60356,-0.88809,-0.90028,-0.24079,0.43494,0.26115,-0.74935,-0.41208,-0.66224,-0.39305,0.21613,0.092968,-0.33231,0.54152,-0.33524,-0.32501,-0.9685,0.2432,0.76573,-0.16524,0.3177,0.27785,0.6555,-0.17609,0.67138,0.6057,-0.75653,-0.13369,-0.53263,-0.81392,-0.55827,0.94293,0.48647,-0.42843,0.24038,0.8075,-0.29913,-0.631,-0.92434,-0.77262,0.74164,0.45643,-0.58307,0.20401,-0.36512,-0.35285
-0.24278,0.12112,-0.28985,0.22562,-0.60986,0.63371,0.091772,-0.36186,-0.73314,0.97091,-0.27105,-0.94628,0.49033,0.21488,0.54472,0.10166,-0.58937,0.3716,0.97658,-0.14113,0.36779,0.82325,0.02378,-0.45366,-0.76164,0.40531,0.20648,-0.96942,-0.2317,0.60624,0.96809,-0.32311,0.95756,-0.12428,0.57118,-0.71428,-0.41203,0.8625,-0.12853,0.041393,-0.45962,-0.010178,0.65509,0.46896,0.76659,0.085135,-0.84657,-0.57091,0.62065,0.4991
0.62316,0.85922,0.99401,0.63884,-0.34632,0.057845,0.88634,0.9721,-0.10842,0.26856,0.35246,-0.81339,-0.045731,-0.4422,-0.88745,0.38907,-0.011286,0.73533,-0.052566,0.58756,0.7558,0.21226,-0.24759,-0.37058,-0.74156,0.7219,0.63568,0.50134,-0.981,0.75327,0.1862,-0.090664,0.88604,-0.37606,-0.41819,0.71382,-0.63131,0.5997,-0.16834,-0.67553,0.48924,-0.32912,-0.94348,0.78004,-0.31398,0.26152,0.17058,0.34513,-0.79475,-0.5536
0.065651,0.39333,-0.55166,0.063778,0.76068,0.3887,-0.35705,0.43636,0.017574,0.20091,-0.24848,0.59577,0.30689,0.59912,0.70945,0.85499,-0.93758,0.16102,0.49372,-0.71687,-0.13639,-0.029309,0.76752,0.16339,-0.84406,-0.24068,0.91109,-0.87575,-0.38195,-0.82505,-0.46091,0.53995,0.96213,-0.2417,-0.88563,0.5241,-0.67409,-0.33785,-0.42961,-0.71278,0.44598,-0.5863,-0.26552,-0.11418,0.90784,-0.46185,-0.47248,-0.35228,-0.57447,0.91073
-0.29855,0.16558,0.3049,-0.59585,-0.057796,-0.57519,0.61293,-0.17363,0.060981,0.81837,0.72692,0.42281,0.93315,0.59234,-0.23143,0.88842,0.65515,0.25221,0.33992,0.2162,0.26269,0.15348,-0.50848,0.37872,0.47048,0.42425,0.30076,-0.13663,0.67349,0.33583,-0.13599,0.5114,-0.86607,0.99118,0.3978,0.52052,-0.84842,0.47484,0.81018,-0.87189,0.71344,-0.78967,-0.65038,-0.18383,-0.38054,0.18362,0.16743,0.26829,-0.10716,-0.96887
0.878,0.63079,0.20998,-0.092213,-0.19206,0.08656,0.2028,-0.80274,0.71943,0.14167,-0.41605,0.56681,-0.37395,0.90817,-0.20076,0.80653,-0.47149,-0.77771,0.59118,0.86126,0.17208,0.9642,-0.67199,0.72774,0.1123,0.047041,0.25529,0.085559,-0.43733,0.0048439,0.86102,0.98479,-0.60949,0.73898,0.27667,-0.081164,-0.12604,0.13488,0.36556,0.70929,0.83764,-0.69273,0.008146,-0.17229,0.86303,0.73261,-0.92619,-0.28884,-0.2269,0.62479
0.75189,0.75803,-0.22551,-0.14418,-0.64154,0.40504,0.57924,0.46912,0.35545,-0.32916,-0.73305,0.24785,-0.84712,-0.11132,-0.34917,0.20821,0.355,-0.57261,-0.45491,0.27289,-0.54518,0.037137,0.31721,-0.57828,0.66874,-0.27302,0.29313,0.2203,0.56269,-0.32888,0.015771,-0.59385,-0.15319,0.89581,0.29542,-0.23183,-0.45676,-0.96787,-0.79147,0.94891,-0.46198,0.74666,-0.0080276,0.7574,-0.6762,0.85109,0.79303,-0.69484,0.5493,-0.60575
0.10031,0.97782,-0.71563,0.93211,0.93785,0.91287,0.59837,0.27461,0.61168,0.91428,0.3453,0.65083,0.58283,-0.086234,0.11078,0.85242,0.58773,-0.92726,-0.43217,-0.90446,0.56931,-0.3026,-0.48876,0.013503,-0.78775,-0.13065,-0.87573,-0.12753,0.063028,0.17712,-0.8718,-0.24917,0.074153,-0.49139,0.76521,-0.78514,-0.52579,-0.14897,-0.83304,0.85805,0.3763,0.44874,0.72976,0.054433,0.90588,0.90224,-0.64946,-0.83103,-0.051538,-0.49216
0.24495,-0.99896,-0.94973,0.24011,-0.18509,-0.11092,-0.90087,-0.85232,0.062486,-0.12015,-0.59483,-0.92995,-0.26923,0.19963,-0.40916,-0.76611,0.36369,-0.11091,0.43451,0.39669,-0.42473,0.96575,-0.68479,-0.1499,-0.48688,0.3752,0.87639,-0.83786,-0.69217,-0.29613,0.31822,0.41734,-0.073446,-0.90302,-0.67186,-0.089056,-0.7069,-0.94124,-0.97321,-0.18096,0.23599,-0.99283,0.14228,-0.74451,0.75704,-0.86659,0.44188,0.4776,0.59358,-0.10069
0.17409,0.73088,-0.15778,0.39078,0.68897,-0.8292,-0.4336,-0.75898,0.91179,0.20309,0.73703,-0.18905,0.1702,0.68524,-0.26776,-0.3184,0.30152,-0.34684,-0.63073,-0.48578,0.84875,0.98402,-0.44679,-0.5206,-0.89175,-0.5463,0.79743,-0.43209,0.050507,-0.58656,-0.10166,-0.673,0.25182,0.66368,0.33334,-0.70551,-0.058351,0.56835,0.83752,0.80322,-0.85689,0.62083,-0.65797,-0.57693,0.014341,0.89228,-0.7628,0.67483,-0.95028,0.16532
-0.58452,0.22513,-0.6318,0.44033,0.23065,-0.88532,0.30691,0.96319,-0.86665,0.44052,0.50231,-0.50066,-0.63333,-0.9376,-0.3019,-0.92654,-0.52532,-0.42541,0.66741,0.3818,-0.40305,0.79231,-0.40258,0.51505,0.31311,0.95801,0.38972,-0.85355,-0.43352,-0.47569,-0.70566,-0.35208,0.0051188,0.37745,-0.2336,-0.41282,0.45718,0.96163,-0.26485,-0.031006,-0.6232,-0.50876,0.81671,-0.6635,-0.96351,-0.0067334,-0.046419,-0.26505,0.99828,0.18741
-0.39751,0.9799,0.45155,-0.30621,-0.24678,0.2589,-0.020689,-0.0064012,0.083036,0.35756,-0.16124,-0.038206,-0.84616,-0.62546,0.26045,0.07674,-0.045193,-0.007096,-0.66067,-0.27364,0.072606,0.48316,-0.98819,0.58382,-0.44513,0.95134,-0.37919,0.45996,0.42973,-0.8027,0.55046,0.61802,0.58355,0.19204,0.38646,-0.23917,-0.2172,0.37989,-0.15595,-0.060652,-0.32886,0.77187,0.32728,-0.29055,0.55631,-0.86395,0.48539,-0.7459,-0.43389,0.93401
-0.058153,0.05536,-0.25927,0.033981,0.75436,0.59236,0.9457,-0.95517,-0.43668,-0.57448,-0.99954,0.76168,-0.69267,0.88719,0.32888,0.47446,0.87284,-0.63659,0.90653,0.083768,-0.33271,0.32947,-0.5427,-0.22824,0.41826,-0.42097,-0.31291,-0.30725,0.46878,-0.69987,0.062524,-0.56209,0.4207,-0.57052,-0.39165,0.84909,-0.68797,0.55937,0.15142,-0.66434,-0.37791,0.67856,0.005378,-0.27088,-0.28109,-0.69272,0.067102,-0.85334,0.53565,-0.047896
-0.53902,-0.040953,0.68312,0.11339,0.5697,0.38238,0.49698,-0.89234,-0.038199,-0.83675,-0.70107,-0.43863,0.65375,0.89584,0.98419,-0.63755,-0.51779,0.86758,0.4451,-0.55572,-0.52541,0.46673,0.34024,-0.36389,-0.73941,-0.32313,-0.84754,0.30441,-0.10073,-0.35796,-0.82421,-0.34322,0.13881,0.070339,0.29926,-0.61306,-0.71682,0.19596,-0.62795,-0.83428,-0.15959,-0.28887,0.64417,0.10335,0.6971,-0.40785,0.27021,0.78443,-0.92987,0.24364
0.68862,0.6027,0.46846,-0.68701,-0.070091,-0.30938,0.13568,-0.71825,0.36973,-0.45104,-0.45233,0.19829,-0.39809,-0.094031,0.88872,-0.14751,-0.58177,0.88036,-0.7315,0.81097,0.090478,-0.12817,0.96333,-0.03815,0.047995,0.99289,0.039674,-0.036485,-0.63585,0.18878,0.80092,-0.076004,-0.6858,-0.88849,-0.28093,0.3101,0.80903,-0.43078,-0.95555,0.26632,-0.82452,-0.36951,-0.42461,-0.73732,-0.13388,-0.6625,0.91481,-0.53039,0.74072,0.23442
-0.61047,-0.54431,0.14205,0.12411,0.62795,0.89363,-0.40207,0.78695,-0.58348,0.73504,0.74485,-0.94755,-0.23223,0.62167,-0.2993,-0.80366,-0.45506,0.18293,0.70618,-0.25292,-0.78463,-0.20074,-0.4877,-0.44299,-0.90822,0.57794,0.21755,-0.23481,-0.72892,-0.69252,0.7363,-0.29534,0.25121,-0.1379,0.82574,-0.21154,-0.29516,0.49251,0.316,-0.37804,0.11974,-0.69163,0.76193,0.42078,0.21156,0.47039,-0.51393,0.5344,0.48589,0.23516
-0.54816,-0.0038114,-0.64629,0.38961,0.79689,0.040381,-0.48778,-0.06836,0.21632,0.11871,0.2025,-0.6896,0.3015,0.85776,-0.614,-0.39356,0.55163,-0.99838,0.86339,-0.84237,-0.72569,-0.56422,0.23835,-0.68393,-0.79739,0.58984,0.45432,-0.34623,-0.45446,-0.87475,-0.8874,-0.85292,0.85167,-0.61852,-0.22246,-0.61303,-0.68108,0.38775,-0.082701,-0.067292,0.33525,-0.22315,0.062876,-0.29002,-0.24484,0.75939,0.25768,-0.025877,-0.78141,-0.2519
-0.65858,0.8017,0.91477,-0.14709,-0.14152,0.90763,0.77313,0.12171,-0.34765,-0.070744,-0.35762,0.66782,0.63474,0.34543,0.83915,0.56025,-0.33718,0.80601,0.12837,-0.93814,-0.81115,0.76326,0.94366,-0.20918,-0.06213,0.26474,-0.99985,-0.79392,0.27129,-0.98444,0.28011,0.010386,0.96639,-0.34445,0.35604,-0.93653,0.74375,-0.11495,-0.60002,-0.57786,-0.7694,-0.38912,-0.81481,0.29416,0.44282,0.70285,0.4923,0.59286,0.73323,0.38914
-0.54467,0.14932,-0.46936,0.67254,-0.33134,-0.85281,-0.1064,-0.011087,0.76169,-0.1394,-0.43141,-0.61021,0.53253,-0.25534,-0.42262,0.073921,0.20615,0.36579,-0.20235,0.2538,-0.37823,0.88414,-0.015657,-0.42909,0.42129,0.6229,-0.66047,-0.25918,0.61238,0.54852,0.77853,-0.4516,0.44635,0.87531,0.50533,0.60364,0.60742,-0.16174,-0.60696,-0.99711,-0.36868,0.64235,-0.032911,-0.14943,-0.36765,0.34406,0.70506,-0.38279,0.64305,-0.39065
-0.1286,0.69036,0.84916,0.46277,0.19329,-0.58594,0.63197,-0.86443,-0.73321,0.54797,-0.12937,0.65958,-0.25165,-0.18861,0.10172,0.53814,-0.63197,-0.8523,-0.11679,0.87399,0.62527,0.89791,-0.39795,-0.5139,0.20269,-0.10381,-0.073418,-0.24512,0.33575,0.36409,-0.30455,0.13527,-0.62488,0.69473,-0.60121,-0.37335,0.46831,-0.69846,0.38715,0.59522,0.96159,-0.44024,-0.35641,0.51467,0.8987,0.59699,0.34171,0.017187,-0.99242,-0.24241
-0.3778,0.47728,-0.55246,-0.27994,0.80398,0.55006,-0.80333,0.79529,-0.79518,0.30784,0.80752,-0.32385,-0.62028,-0.12235,0.83865,0.27789,-0.82508,0.99277,0.40336,-0.36013,0.027115,-0.78711,0.19419,0.28504,-0.59017,0.66123,-0.2763,-0.036403,-0.42682,-0.75899,0.33344,-0.94498,0.72026,-0.48603,0.35663,0.49388,-0.015658,0.080584,0.49483,-0.26391,0.77174,0.70291,0.086161,-0.51407,0.69949,-0.79904,0.93755,0.61424,0.32053,0.51331
0.84676,0.17197,-0.25287,-0.091575,0.40413,0.82838,0.71919,-0.42287,0.91823,0.31546,0.85021,0.34223,0.293,0.3573,-0.8199,0.7863,-0.38217,-0.37109,-0.47991,0.49035,0.73295,-0.88405,0.086766,0.91385,0.23757,-0.74667,0.90413,0.59124,-0.71512,0.43851,-0.091079,0.22743,-0.74188,-0.24559,0.582,0.18127,-0.19632,-0.60728,0.086669,-0.96972,-0.95448,-0.60943,0.91341,-0.62311,0.5512,0.045337,-0.99427,0.50063,0.26473,0.014051
-0.13959,-0.50653,-0.825,-0.22722,-0.24509,0.5651,-0.94474,-0.46191,-0.6942,-0.67796,0.010585,-0.89527,-0.99279,-0.069859,-0.48461,-0.87862,-0.53824,0.61844,-0.94294,-0.42214,0.96097,-0.67255,-0.74046,-0.62733,0.3983,0.026536,0.86439,0.38279,-0.50825,-0.67629,-0.10624,-0.15278,0.48694,0.46703,0.45242,-0.40714,0.7252,0.49837,0.051713,0.42996,0.72657,-0.29,-0.26495,-0.69453,-0.40097,-0.88262,-0.84007,0.7235,-0.57904,0.2301
-0.63037,0.33283,0.28023,0.55111,0.46991,-0.40893,0.79831,0.18839,-0.69492,-0.13525,0.25516,0.46862,-0.43422,0.90653,-0.1459,-0.64846,0.81837,-0.077099,0.89593,-0.75129,-0.34669,0.054948,0.10444,0.81903,-0.37034,0.43186,0.91614,0.69958,0.38379,-0.75968,-0.96594,0.29059,-0.90424,0.56445,-0.64961,0.63101,-0.63833,0.43132,-0.18657,-0.56284,-0.51001,-0.30805,-0.94708,0.98243,0.7454,0.62729,0.13541,0.10659,-0.13011,-0.19583
0.80976,-0.83303,-0.63877,0.46854,0.90821,-0.69631,0.79987,-0.048242,-0.68889,0.010172,0.43853,-0.0010364,0.2772,-0.2906,0.15545,-0.16734,0.87377,0.17428,0.99234,0.028162,-0.56077,-0.8605,-0.70187,0.13748,0.60958,-0.50371,-0.58692,0.024565,-0.85651,0.3623,0.72284,-0.38776,0.2994,-0.97673,-0.79357,0.78503,0.85114,0.40899,0.11394,0.37743,-0.1328,0.17126,0.47902,0.94944,-0.24983,-0.30863,-0.32519,0.59129,0.86622,-0.60401
0.9595,0.25192,-0.9099,-0.13944,0.085626,0.69582,0.048212,-0.26338,-0.82086,-0.24934,-0.95217,0.8866,0.18415,-0.32196,0.79904,0.47958,-0.93624,-0.044809,0.55897,-0.22498,0.036447,-0.97971,-0.4829,-0.61297,-0.64396,0.063801,-0.6806,0.71007,-0.0026782,-0.71035,0.87564,-0.41843,-0.88093,-0.55659,0.63509,0.17917,0.64407,0.47257,0.46126,-0.50799,-0.72925,-0.087498,-0.35023,0.8442,0.59684,0.65785,0.214,0.89972,-0.085435,0.0084495
-0.12226,0.32189,0.44635,0.38751,0.080212,0.56971,-0.7596,0.31122,-0.091151,-0.039256,0.14987,-0.42046,-0.34942,0.79172,-0.56355,0.78591,0.18729,0.10491,0.9788,0.95722,-0.29399,-0.81664,0.057424,0.40848,-0.51739,-0.23558,0.14352,-0.069117,0.972,-0.88434,-0.042452,-0.13897,0.83952,-0.86586,0.96019,0.63038,0.37316,0.31337,-0.41298,-0.46783,-0.5688,-0.9231,0.33057,-0.097395,0.63357,0.44993,-0.75113,0.49168,-0.77994,-0.059772
-0.77776,0.4595,-0.30512,0.89043,-0.37778,-0.45834,-0.64441,0.8764,0.33779,-0.31516,-0.90693,-0.24688,0.9779,0.090869,0.93406,-0.94829,-0.91236,-0.64937,-0.024894,-0.41636,0.71895,0.21487,0.62675,0.30316,0.18946,0.60352,0.18584,-0.4703,0.8098,-0.73012,0.13966,0.10055,-0.65655,0.41131,0.50337,0.11026,-0.061678,0.78219,0.56911,-0.73586,0.54946,-0.23997,-0.0043074,-0.5964,0.99803,-0.32541,0.16323,-0.87603,0.35978,-0.72152
-0.48387,0.7815,0.32123,0.56847,-0.85753,-0.54438,0.41222,0.24085,0.6626,0.55429,-0.15494,-0.77249,-0.75353,0.49857,-0.13204,-0.72487,-0.15019,0.17449,-0.74403,0.18469,-0.47996,-0.88783,0.43707,-0.33621,0.73647,0.34172,0.39722,0.25897,0.15042,-0.97044,0.98559,-0.75508,-0.82391,0.75187,0.81948,0.62915,0.77588,-0.017841,-0.84836,-0.31158,-0.82563,0.092974,0.71537,-0.24887,-0.90982,-0.57707,0.73601,-0.6193,0.94346,-0.064439
-0.18256,0.96461,-0.23226,0.41114,-0.63604,-0.35795,0.66272,-0.43432,0.58047,-0.23211,-0.064531,0.9297,0.47175,-0.75025,0.56964,-0.15183,0.043163,-0.6904,-0.071265,0.14271,0.68744,0.3162,0.0016386,0.043137,0.63734,0.96572,-0.38837,0.12547,0.53303,-0.62177,-0.19173,-0.73915,-0.39091,-0.44504,0.21703,-0.92329,0.96472,-0.31645,-0.056639,0.50878,-0.19924,-0.86348,0.49726,0.48633,-0.52639,-0.32032,-0.7386,0.4929,-0.12925,-0.040036
0.18979,0.53806,0.25469,-0.78133,-0.81402,0.65912,-0.93033,-0.58964,0.42542,0.42311,-0.95474,-0.13498,-0.68677,-0.09353,0.050468,0.52913,0.68068,-0.10909,0.48518,0.23171,0.1656,0.15164,0.78796,-0.95047,0.18017,0.87364,-0.2123,0.082313,0.49353,-0.85828,-0.56032,-0.54242,0.34319,0.38561,-0.081597,0.69697,-0.93533,0.92542,-0.20169,0.77848,0.18022,-0.57355,-0.20417,0.8022,-0.13819,-0.081416,-0.27259,-0.78155,-0.52408,-0.91568
-0.47558,0.16289,-0.9567,-0.22014,-0.073022,0.64436,0.51568,-0.12173,-0.054805,-0.038133,-0.86985,-0.83087,-0.13071,-0.8505,-0.33745,0.048874,0.25006,0.075243,0.34678,0.12183,0.43881,-0.85233,0.90143,-0.95545,-0.99542,0.15254,-0.32623,-0.21338,0.39066,-0.92428,0.73299,-0.78615,-0.59111,-0.72197,-0.90817,-0.77103,0.64955,-0.75011,0.82222,0.42087,-0.60695,0.5438,0.028229,0.72091,0.69448,0.057495,-0.82189,0.95348,0.77484,-0.81742
0.20569,0.85663,0.82114,0.18181,-0.98133,0.14137,0.91422,-0.9455,0.41718,0.45836,0.84791,0.43335,0.66449,0.32668,-0.13681,0.50896,-0.48959,-0.0762,0.74796,-0.44028,-0.31295,-0.51686,-0.075289,0.59705,0.88906,-0.83963,-0.74201,-0.15908,0.35463,-0.38426,0.37805,-0.81393,0.94962,-0.25046,0.19934,-0.69765,0.31864,-0.58278,-0.14396,-0.50705,0.39362,0.26076,0.16751,0.94658,-0.22713,-0.19759,-0.63453,0.54665,0.90554,-0.36321
0.42243,0.16018,0.60112,-0.08124,0.83005,0.14366,-0.31426,0.75237,0.91612,0.87512,0.068286,0.013575,-0.28018,0.4073,0.4358,-0.6604,0.80938,0.66822,0.5165,-0.6963,-0.98145,-0.29761,-0.42481,-0.78438,0.58495,-0.17235,-0.82613,-0.72576,-0.4352,0.031471,-0.65706,-0.62285,-0.92088,0.67176,0.56285,0.45607,-0.10344,-0.69006,0.89017,-0.097221,0.18594,0.61744,0.016488,-0.69699,-0.75439,0.50384,0.2254,0.9886,-0.21669,0.99073
-0.55651,-0.96603,0.49169,-0.89932,0.28548,-0.42796,0.27649,0.22018,0.011551,0.034509,-0.26641,-0.34382,-0.84752,0.8379,0.83242,0.34545,0.5346,0.99234,0.23435,0.46603,-0.61511,-0.74652,0.85273,0.37761,-0.20134,-0.63831,0.097887,-0.41564,0.16374,-0.21298,-0.98195,0.36699,-0.016418,0.3915,0.6361,-0.59605,0.14744,0.61521,-0.19094,0.86245,-0.07162,-0.95702,0.46774,-0.75368,0.83052,-0.94612,0.8532,-0.36546,0.52666,0.23675
-0.76516,-0.75828,0.62623,-0.54262,-0.99716,0.39827,-0.31399,-0.59282,-0.38989,0.80614,-0.27211,0.50705,0.11385,0.32014,0.78006,0.23731,0.12533,0.94449,-0.45037,-0.9206,0.014776,0.47882,-0.0073436,0.55005,0.7469,0.99126,-0.36453,-0.98535,0.23774,0.99039,-0.66185,0.082965,0.28187,0.3898,-0.55384,0.47602,0.59583,-0.86527,-0.51501,0.23134,-0.51769,-0.97649,0.45718,-0.61239,-0.63534,-0.2507,0.47642,0.46795,-0.79989,0.51155
-0.40665,0.72542,-0.23339,0.66838,-0.93923,0.59252,-0.56706,0.039834,0.57962,-0.56361,-0.69725,0.67201,-0.45214,0.38021,-0.73059,-0.98631,0.79431,0.49186,-0.32724,0.60324,-0.95152,-0.10864,0.75466,0.58299,0.34879,0.040772,0.9855,0.8654,0.62848,-0.1208,-0.58722,0.042814,-0.18997,0.70672,0.46581,0.73434,0.26552,-0.018794,0.74524,-0.48342,-0.17446,-0.20241,-0.61174,-0.48474,0.18155,-0.62664,-0.98951,0.63104,-0.55228,-0.44776
-0.36244,-0.031407,0.23456,-0.96871,-0.58306,-0.11682,0.5724,-0.89235,-0.52723,0.74644,-0.70078,-0.49257,-0.73589,0.70745,-0.76017,0.48045,-0.26384,-0.60009,0.67145,-0.18717,0.10008,-0.96478,-0.57352,0.41894,-0.51527,0.77057,0.44713,0.21852,-0.96803,-0.69712,0.80324,0.88363,-0.88584,-0.41082,0.35512,-0.58192,0.57941,0.19684,-0.012023,0.26221,0.54099,-0.58061,-0.090215,0.45635,0.6247,-0.25604,-0.093067,-0.16918,-0.79505,0.067943
-0.15167,0.68971,0.15099,0.72742,-0.090068,-0.10757,0.44618,0.72437,-0.53139,-0.83461,-0.2984,0.06885,0.39931,-0.064197,0.7869,0.98347,-0.32454,-0.92734,-0.22823,0.66002,-0.44763,0.36342,-0.7712,0.89308,-0.66311,0.2965,0.1442,0.78369,-0.57129,0.5561,0.41828,0.275,0.26067,0.30194,0.9442,0.45752,-0.88088,-0.26996,-0.15285,0.39106,-0.92932,0.17583,0.037233,-0.55327,-0.47768,-0.3383,0.10585,-0.1067,-0.95716,-0.95483
0.015717,-0.58119,0.060103,-0.84386,-0.74547,-0.068675,-0.44232,-0.11413,-0.070601,-0.069193,-0.32807,-0.12967,-0.02819,-0.083043,0.30617,-0.74364,0.23771,-0.62279,-0.83931,0.94207,0.39248,0.76167,-0.75137,-0.40396,0.72225,-0.067493,0.43445,-0.15835,0.97573,0.48235,-0.73614,0.43712,-0.57084,-0.40274,-0.1768,0.2266,-0.22119,0.37712,0.10473,-0.19268,0.2151,0.64544,-0.70183,0.19408,0.97162,-0.96298,-0.2787,0.15235,0.033857,0.647
-0.82897,0.10458,-0.44986,0.33809,-0.9827,-0.44192,0.16486,0.096018,0.23877,-0.95614,0.56806,-0.68459,-0.63457,0.61221,-0.91944,-0.27883,-0.82621,0.15509,0.73117,-0.15503,0.76271,-0.72036,0.14821,0.99164,-0.34672,-0.80944,0.95312,-0.19964,0.63467,-0.82471,-0.14959,-0.15112,0.25942,0.88935,-0.89755,0.025944,-0.15953,0.71381,-0.50286,-0.61304,-0.84105,0.49815,0.56388,-0.65182,-0.11749,0.37046,-0.94986,0.52535,-0.48263,-0.51806
-0.47504,0.25977,-0.50274,0.00042265,0.45416,0.35075,-0.15799,0.13372,0.23066,0.61656,-0.026522,0.20096,-0.79757,0.64953,0.0094319,-0.61785,-0.249,0.25654,-0.12925,-0.89219,-0.95064,0.62171,-0.067256,0.10889,-0.3497,0.93564,-0.14602,0.10787,0.26416,-0.059149,0.32289,-0.50328,-0.21088,0.56158,-0.36946,0.91867,0.32814,0.80128,-0.48568,-0.38585,-0.16925,0.85829,-0.66913,0.15044,-0.54948,0.34468,0.34423,0.23788,-0.93219,0.30421
0.60203,-0.93602,-0.096722,-0.56401,-0.29177,0.80733,-0.81586,0.36079,-0.75475,-0.64158,-0.070404,0.8749,-0.59683,-0.61913,0.78891,0.4288,-0.62524,-0.27045,-0.65584,0.57407,-0.31759,-0.49428,-0.25192,0.31218,-0.19965,0.24022,0.82603,0.19252,0.36429,-0.41434,-0.35523,0.87197,0.59222,0.65004,-0.37048,-0.63111,0.26894,0.90299,-0.58053,0.38591,0.97096,0.049091,-0.0095521,-0.082034,-0.63056,0.66607,0.35473,-0.37043,0.49936,0.25782
-0.94156,0.22943,-0.54457,0.14323,0.56089,0.81705,-0.95195,-0.25724,-0.75241,-0.66922,-0.73749,-0.78448,-0.73051,-0.94865,-0.22854,-0.64427,0.62105,0.27312,-0.99141,0.26015,-0.15719,-0.95123,0.50923,0.8907,0.52701,-0.68799,0.79462,0.012558,0.61643,-0.1863,0.19487,0.60426,0.75807,0.47237,-0.014527,-0.59852,0.77061,0.80009,0.16125,0.26072,0.6853,0.077291,-0.48165,0.76588,0.39648,-0.12722,-0.24305,0.60319,0.083425,-0.68069
0.85771,-0.27518,0.6089,-0.75562,-0.12669,0.49439,-0.017708,-0.84354,-0.43108,-0.63679,0.77278,0.79996,-0.35242,-0.88637,-0.4159,0.9737,0.4465,0.78259,0.30499,0.017639,-0.83998,0.061447,-0.088796,-0.55073,-0.67186,-0.20327,0.67046,0.17442,-0.44068,-0.13953,-0.57871,0.52327,0.56015,0.58735,-0.88874,0.31824,0.22302,-0.98693,0.6703,-0.50035,-0.89519,0.33459,0.24352,-0.987,0.75039,0.27148,-0.13112,0.52645,0.7639,0.51421
0.46066,-0.90093,0.97221,0.34233,-0.12689,-0.47898,-0.44347,-0.087299,0.47147,0.38287,0.34911,0.10093,0.90109,-0.71413,-0.53193,-0.966,0.34935,-0.49296,-0.26062,0.13537,-0.84129,0.86971,0.41206,0.96304,0.37658,0.76501,-0.90408,-0.73436,0.32994,0.74252,-0.62076,-0.87649,0.40497,-0.18968,-0.81003,0.47821,0.2307,-0.91614,0.70532,-0.91316,0.45504,0.74252,-0.085776,-0.26518,0.53793,0.33023,0.065898,-0.50853,0.12278,-0.33633
-0.022782,-0.02086,-0.94002,0.19917,-0.90157,0.37928,-0.32049,-0.90431,-0.17738,-0.57247,0.67032,-0.14529,0.064261,-0.65716,-0.5981,-0.92041,0.82796,-0.42728,-0.2478,-0.38162,-0.85525,0.53866,0.85902,-0.65876,0.28663,0.078028,-0.28144,0.5232,-0.94135,0.4145,-0.58337,0.81331,-0.15866,-0.73878,-0.52184,-0.25126,0.75432,0.74178,0.28779,0.062903,-0.77008,-0.63735,-0.48909,-0.67453,-0.47713,-0.28845,-0.89614,0.014947,0.93738,-0.52744
0.15705,-0.61498,0.071328,-0.88805,-0.90074,-0.73634,-0.4253,0.47651,0.65796,-0.40379,0.31298,-0.69524,-0.50463,0.25169,-0.23939,0.60866,0.64192,-0.74916,-0.11732,0.49427,0.80068,-0.1905,0.64093,0.88212,0.64271,0.087352,-0.40849,0.30229,0.08876,-0.97141,0.42669,0.31126,0.28771,-0.68089,0.56487,0.95216,0.53373,-0.1112,0.97002,-0.6476,-0.029238,0.39821,0.068801,-0.84742,0.97141,-0.36293,-0.53717,-0.70596,0.50495,0.42155
-0.52543,-0.75383,-0.82585,-0.88731,-0.8178,-0.753,-0.65819,-0.924,0.87023,0.53667,0.96783,-0.50491,-0.12545,-0.94097,0.18958,0.71958,0.097449,0.057148,0.032248,-0.32668,0.93862,0.43562,-0.9203,0.91392,-0.24291,-0.11509,0.25825,-0.29782,0.05794,-0.95083,-0.49461,0.8959,-0.84338,0.63329,0.73766,-0.92958,0.50018,-0.11492,0.95796,0.043804,0.73719,-0.62218,-0.81676,0.8023,-0.91163,0.37955,-0.14786,-0.7406,0.89857,-0.34545
-0.082302,-0.58901,0.60418,-0.695,0.18807,-0.61819,-0.20147,0.90849,-0.20187,0.0023002,0.95958,-0.10526,0.33818,-0.055335,-0.46323,0.13251,-0.96892,0.64153,-0.39977,0.76671,-0.21739,-0.037355,0.93238,-0.64997,-0.7762,-0.63251,-0.72763,-0.37481,0.74633,-0.52601,-0.45997,0.090484,-0.2385,-0.93889,0.24797,-0.34351,-0.76876,-0.3388,0.36525,0.74256,-0.96659,-0.60037,0.12307,-0.14422,-0.31171,-0.94737,-0.71443,0.32131,0.47763,0.030282
0.92618,-0.70697,0.97829,-0.96076,-0.51783,-0.70854,0.3953,0.48474,-0.89558,0.81893,-0.49969,0.065567,0.095391,0.35689,0.24489,0.50823,-0.81063,-0.40045,-0.043356,-0.33269,-0.37283,-0.11765,0.77594,-0.89138,0.71897,-0.50154,-0.25191,-0.4515,-0.62478,0.19653,-0.036485,-0.38936,-0.12462,0.087983,-0.33495,0.30192,-0.59182,0.87935,0.57096,0.22723,0.63782,0.54193,0.7044,0.092953,0.34637,0.87984,0.97625,-0.85354,-0.47295,-0.13578
0.093611,-0.62186,-0.86611,-0.12965,0.68274,0.17009,-0.59265,0.8749,0.14237,-0.88429,0.24914,-0.2907,0.21811,-0.77042,0.60913,0.03903,0.029517,0.57536,-0.98751,0.59203,0.10663,0.88472,0.27755,-0.46358,0.42637,-0.42978,0.72956,-0.70094,0.86292,0.8524,-0.55865,-0.82297,-0.1861,0.64699,-0.4575,-0.9213,-0.76748,0.42568,-0.3024,-0.45714,0.56775,0.059792,0.45498,-0.82593,-0.88653,0.25309,0.69618,-0.59687,-0.82503,0.59758
0.042272,-0.9147,0.8788,0.66444,0.71443,-0.85328,0.33265,0.026728,0.49534,-0.1265,0.45648,0.54623,0.72627,-0.52787,-0.79206,0.17181,0.90497,-0.12597,-0.65713,0.60957,0.5841,0.15756,-0.97809,0.092019,0.15002,0.059019,-0.49945,-0.33131,0.9527,-0.33117,-0.29067,-0.15693,-0.45243,0.89679,-0.93605,-0.72876,0.68292,0.87781,0.56103,0.70908,-0.61258,-0.99057,0.077395,0.17779,-0.89086,-0.7298,0.85614,0.70149,0.37177,0.085733
-0.53681,0.2704,-0.96364,0.23478,0.92722,0.64465,-0.11387,-0.51819,-0.35951,0.14451,-0.0036594,0.76336,-0.23861,-0.42184,0.45848,-0.61853,0.68612,0.10108,-0.39289,-0.89952,0.59663,0.56722,0.95452,0.55037,0.48228,0.11967,-0.94099,0.66607,-0.33759,-0.11393,0.27547,-0.26493,-0.5373,-0.079463,0.73866,-0.52252,-0.23685,0.061912,-0.90721,-0.68508,0.82569,0.91072,0.34323,-0.18423,0.12973,0.87703,0.74494,0.19159,0.62093,0.83567
-0.022205,-0.43627,0.36768,0.040259,-0.0222,0.44581,-0.13341,-0.48007,-0.014131,0.13013,0.69966,0.46818,0.49791,-0.65449,0.29718,0.0068829,0.87002,0.97223,0.48893,-0.19499,0.72652,0.42961,-0.22894,0.20752,0.50734,-0.16971,0.9989,-0.53285,0.24742,-0.80172,0.49951,0.70506,0.4758,-0.861,-0.50471,0.71872,-0.091908,-0.95639,-0.29433,-0.48116,0.36738,0.75456,0.72137,0.22516,0.30189,-0.064284,-0.21079,0.35462,-0.69839,-0.72145
0.24812,0.077193,0.56747,0.72774,-0.55938,0.85172,-0.64952,0.51795,-0.55669,0.64763,-0.61816,-0.18714,-0.68661,-0.35259,-0.050691,-0.89817,0.94683,0.37956,0.16179,0.93038,0.59592,-0.71567,-0.20068,-0.36781,0.11018,0.81136,0.21029,-0.86152,0.054121,0.4303,-0.015157,0.96785,0.7588,0.044799,0.97084,0.82896,-0.85223,0.64078,-0.286,0.34116,0.77679,0.74462,0.10386,-0.91931,-0.52594,0.86641,-0.24597,0.92991,-0.37237,0.80301
0.35827,0.39033,0.068275,-0.8046,-0.54758,-0.014723,-0.6136,0.98669,0.87855,-0.7478,-0.75171,0.20836,-0.88375,0.60222,0.86582,-0.88781,-0.25495,0.94027,0.40241,-0.17125,-0.98725,0.38584,0.020576,-0.13329,0.60182,-0.38971,-0.51161,-0.010546,-0.081837,0.44328,0.23478,-0.89229,0.54498,-0.60829,-0.74483,-0.98478,-0.94967,-0.42501,-0.74053,-0.54809,0.42574,-0.01195,0.82137,-0.90406,0.25383,0.94649,-0.94852,0.61088,-0.025943,-0.44744
-0.20897,-0.001768,0.77072,0.8161,0.073576,0.30977,0.23284,-0.28659,-0.035389,-0.39977,-0.99442,0.28221,-0.32059,-0.40073,-0.80711,-0.32961,-0.3582,-0.80807,0.60933,-0.33895,0.8398,-0.2127,0.10326,0.68556,0.34069,0.29954,-0.12361,-0.7557,-0.28287,0.56494,-0.36109,-0.28573,-0.92833,-0.40258,0.065907,-0.50764,0.92223,0.73476,0.96449,0.65193,-0.030216,0.062203,0.1135,-0.085155,0.060077,-0.43128,0.54949,0.50211,0.40726,0.88737
-0.26513,0.071602,0.79801,-0.78397,0.52422,0.78025,-0.46198,0.50572,0.079992,-0.99576,-0.69409,-0.74507,0.63435,0.55125,0.19821,0.26181,0.5665,0.79618,0.70397,0.27274,-0.96408,-0.74446,0.91779,0.25227,0.070215,-0.42244,0.47019,-0.19476,-0.33146,0.88409,-0.395,0.99813,0.10863,0.95143,-0.24281,0.21946,-0.68321,0.72042,-0.16849,-0.35181,0.66644,-0.93548,0.71668,0.63905,0.028568,0.077618,-0.29561,0.59688,0.19217,-0.86992
0.97596,-0.10963,0.25188,0.033994,-0.30487,0.077051,0.11936,-0.7799,-0.55789,0.90221,0.068322,-0.007616,-0.2449,0.10554,-0.53287,0.78396,-0.57556,-0.88311,-0.76456,0.71605,-0.94117,0.28181,0.7108,-0.4549,0.37185,-0.4895,0.11598,-0.81757,-0.83361,-0.90486,-0.71642,-0.16997,0.17635,-0.66937,0.56754,0.96903,0.86728,0.10126,-0.18703,-0.023227,-0.81851,0.50031,-0.094474,0.3977,0.40326,-0.97485,-0.60387,-0.45225,-0.8913,0.10198
-0.92452,-0.75214,-0.72426,-0.71369,-0.077536,-0.43559,0.88957,0.19409,-0.80811,0.5326,0.021267,-0.37906,0.94521,0.10938,-0.93534,0.34679,0.9183,-0.75336,0.31453,0.57657,0.4229,-0.004983,-0.046589,0.029069,0.91037,-0.28363,-0.12332,0.4411,-0.2192,0.6007,0.68868,-0.2387,-0.50762,0.5547,0.82818,0.95862,-0.52647,-0.085523,0.56538,0.52745,-0.94902,0.5167,-0.67877,0.09989,-0.25262,-0.6857,0.37875,-0.17425,0.94232,-0.97576
0.77034,-0.019285,-0.5644,0.11874,0.27865,0.95192,0.42894,-0.13881,-0.87967,0.50261,-0.22957,0.15715,0.21064,0.46129,0.15972,0.37053,0.86047,0.26145,0.5059,0.076819,0.076828,-0.87205,0.75563,0.7768,0.2555,0.61184,0.20708,-0.31531,-0.52131,-0.066423,-0.42369,-0.79084,-0.20323,-0.31724,-0.27775,0.23839,-0.84889,0.70005,-0.13359,0.47535,-0.32854,0.16713,-0.52557,-0.59815,0.22807,-0.29671,-0.57591,-0.45316,0.14874,-0.71997
0.82657,0.706,-0.63572,-0.99084,0.83467,-0.92715,0.35844,0.46144,0.63902,-0.72227,-0.37881,0.88722,-0.32353,0.54725,0.6844,0.39149,-0.26854,-0.25979,0.40426,0.48334,0.049177,0.047074,-0.22024,-0.65141,0.63826,0.077853,-0.638,0.13261,-0.027456,-0.44172,0.81766,0.17922,0.61356,-0.051794,0.82209,0.89664,0.34511,-0.30444,0.15256,0.27205,-0.026155,-0.25977,0.22349,0.27597,-0.38543,0.54625,-0.77702,-0.57029,0.14889,0.71208
0.59237,0.74785,-0.91636,0.53336,-0.67685,-0.34751,0.91876,-0.47765,0.54296,-0.30136,-0.99289,-0.14612,0.85597,0.80169,0.11379,0.59966,-0.31018,-0.36086,0.21024,0.47944,0.0044799,-0.37092,-0.90167,0.64014,-0.62207,0.18013,0.61757,0.30902,0.40019,-0.91056,-0.77358,-0.70736,-0.39633,-0.79953,-0.76176,-0.25248,-0.83135,-0.52308,0.30094,-0.50172,-0.54927,-0.016,-0.13256,-0.90934,-0.81421,-0.3596,0.88494,-0.43078,0.15431,0.27734
-0.80258,-0.45941,-0.78612,0.69742,0.43127,0.94603,0.55067,-0.81038,-0.60861,-0.69732,0.63048,-0.93374,0.79685,-0.72367,0.67977,0.32121,0.38536,0.59139,-0.92347,-0.11041,-0.86866,0.70978,-0.38513,-0.63762,0.50295,-0.53772,0.63812,0.305,-0.72546,0.5751,0.22772,-0.24685,-0.020731,-0.87964,-0.93034,-0.54487,-0.87566,-0.89812,-0.93398,0.46863,0.10942,0.054365,0.21431,0.44149,0.32584,0.10696,0.71033,0.36907,0.20184,0.65977
-0.47626,-0.58308,0.23289,0.83364,0.15548,-0.26993,0.21545,-0.098073,0.79024,-0.0065586,0.27684,0.85887,0.70141,0.58815,-0.5901,0.039873,0.43321,-0.39659,-0.6097,0.70082,-0.53992,-0.98197,-0.35958,-0.80547,-0.55684,-0.79611,-0.025529,0.40171,0.65293,0.79825,-0.43219,0.8727,0.56257,0.72344,0.80901,0.13637,0.39034,-0.73008,-0.19198,-0.32099,0.3623,-0.10255,-0.52669,-0.15139,-0.94285,-0.23976,0.72556,-0.13048,-0.72797,0.39812
-0.32929,0.12996,0.87932,0.97394,-0.1334,-0.3817,0.896,0.28015,0.3686,0.6173,-0.10332,0.84996,-0.48642,-0.62117,0.24251,-0.33653,0.60069,0.21492,-0.33864,-0.01093,-0.76592,-0.59483,-0.077409,-0.93737,-0.1671,0.28929,0.5101,-0.39779,0.86011,0.55137,0.016264,0.40074,-0.10005,-0.85826,0.86148,0.12016,-0.99588,0.15627,0.91789,-0.39446,0.66989,-0.7152,0.86705,0.031582,-0.23091,0.50042,-0.74825,0.11952,-0.93013,-0.72043
0.35946,0.28062,-0.29109,0.010266,0.76849,-0.75818,-0.88072,-0.73592,0.31369,0.26574,-0.51183,-0.28339,-0.42901,-0.94205,-0.65196,0.86835,0.18734,-0.076056,0.28567,0.89632,0.97954,0.76121,-0.023733,-0.97965,0.58175,0.96028,-0.19125,-0.82907,0.65746,0.6749,0.07775,-0.51413,0.66648,0.76559,0.17999,-0.43779,-0.68629,0.80874,0.19104,-0.74572,0.79175,0.30549,0.40682,0.82256,-0.8559,0.97015,-0.54102,-0.59854,-0.17233,0.33787
-0.72689,-0.16594,-0.17874,-0.45716,-0.2139,0.83153,-0.46258,-0.094355,0.98076,0.3768,0.60677,-0.48002,0.55989,-0.74523,-0.42092,-0.50705,-0.80565,-0.41481,-0.56519,0.59558,-0.85897,-0.5639,0.41348,0.93489,-0.20008,-0.79656,0.45135,0.26687,-0.030094,-0.31116,-0.8957,0.48424,0.35335,-0.21232,-0.8871,0.7444,-0.4509,0.54233,0.86616,-0.97972,-0.1248,0.34934,0.35127,0.49927,-0.41616,-0.10577,0.68878,0.21981,-0.4541,-0.066645
0.44245,-0.58805,0.9687,-0.7985,-0.64205,-0.72904,0.97336,0.3044,-0.93262,0.27914,0.64794,0.57372,0.40279,-0.73253,-0.96299,0.022413,0.11902,0.66484,-0.84618,-0.73391,-0.87995,-0.36462,-0.26541,0.77608,-0.90978,-0.62427,-0.69198,-0.46713,0.31954,-0.61761,-0.12584,-0.34672,-0.82674,-0.1199,0.76432,0.69127,-0.36954,0.40829,0.87408,0.84986,-0.20069,0.49953,-0.21273,0.92415,-0.57368,-0.85075,0.61365,0.57739,0.3793,0.8519
-0.78648,0.89587,0.89116,0.015698,0.26667,-0.33576,0.54441,0.654,-0.15149,0.45864,0.70438,0.023164,-0.014976,-0.74338,0.40299,0.48064,-0.91382,0.14105,0.96118,-0.52446,0.32315,-0.31207,0.88288,-0.90063,-0.59791,-0.98123,0.018147,0.7885,-0.087198,-0.24312,-0.56254,-0.26008,0.96144,-0.29854,0.69903,0.29596,0.42807,-0.15518,0.51148,0.82001,-0.11976,-0.38815,0.29501,0.51475,0.44399,-0.79912,-0.44705,-0.87714,0.97118,0.77028
0.30751,-0.83586,0.35329,0.17122,0.248,0.79496,-0.049291,-0.38385,-0.020033,0.71969,-0.065496,0.12505,0.93534,0.87052,0.90418,-0.49166,0.51526,-0.85898,-0.58648,-0.74455,-0.31188,0.60015,-0.46362,0.34041,-0.91427,0.67661,0.33607,-0.39946,-0.16308,-0.48733,0.83668,-0.014412,0.13286,-0.9353,0.13748,0.44734,0.14357,0.91571,0.077828,-0.2357,-0.38075,0.6087,-0.10149,-0.12382,0.41005,-0.32755,-0.37752,0.97797,-0.50617,0.41392
-0.011652,-0.78858,0.9766,0.52577,-0.34412,-0.00070244,0.3618,-0.19527,0.16701,0.25391,0.9414,0.36959,-0.047677,-0.45354,0.49802,0.69117,0.3193,-0.46738,0.96651,0.068241,-0.74297,0.14217,0.49079,0.95324,0.27833,-0.037315,-0.69485,0.43011,-0.93141,-0.95707,0.38291,-0.59876,-0.58464,0.45113,-0.078829,-0.46652,0.030386,0.51118,0.64858,0.40278,-0.10609,-0.40007,0.97994,-0.089006,0.43024,-0.41558,-0.23879,0.24307,0.5327,0.2868
0.5581,-0.71592,0.53366,-0.83407,0.60593,0.23058,-0.16613,0.76846,-0.83346,-0.63882,0.68249,-0.81521,0.98981,0.88536,0.51345,0.076309,0.19892,-0.65825,0.22074,-0.88661,0.27427,0.62648,0.81815,-0.55947,-0.49648,-0.062939,-0.87461,-0.3393,0.8537,-0.41344,-0.76815,-0.42487,-0.80878,-0.29302,-0.86479,-0.75602,0.15466,-0.26799,-0.97851,0.34468,0.92878,-0.45183,-0.81277,0.023166,-0.27755,0.83395,-0.16305,0.94877,0.33332,-0.48691
0.43007,-0.66708,-0.3266,0.32319,0.99896,0.16627,-0.2397,0.40116,0.32031,0.14661,-0.8429,0.74516,-0.018843,0.2763,0.084178,0.82027,-0.54601,0.12061,-0.50404,-0.06285,0.49298,-0.82764,0.16911,-0.83188,-0.16023,0.8171,-0.32577,-0.27025,-0.91324,-0.51915,-0.28075,-0.41481,-0.87496,0.28212,-0.23357,-0.69829,-0.99011,0.10123,0.49304,-0.74465,-0.075304,-0.45903,-0.063252,-0.53278,0.09294,0.0095244,-0.86813,0.70936,0.072633,0.40709
0.80744,0.24192,0.32476,0.033958,0.96196,0.39651,-0.57346,-0.51626,-0.89539,-0.67287,-0.5248,0.88588,0.0069068,0.74506,-0.43587,-0.29859,0.42743,-0.59582,0.035916,0.96538,0.61053,-0.61573,0.81301,-0.28227,-0.65633,-0.16571,-0.10811,0.1847,-0.04788,-0.59482,-0.38789,-0.14031,-0.94844,0.54318,0.4808,0.33581,-0.29553,-0.55714,-0.79393,-0.59806,-0.008016,0.52698,0.38736,-0.12063,-0.28434,0.15845,0.8943,-0.9213,0.80105,0.47123
0.78185,0.14742,-0.51167,-0.6579,-0.74593,-0.94134,-0.23412,0.51966,0.11366,0.8121,0.63514,-0.80681,0.53755,-0.26585,-0.51025,0.87065,0.449,-0.015262,0.42566,0.36444,-0.46195,0.259,-0.88663,0.46637,0.76891,0.088276,0.5153,0.81037,-0.2285,-0.30356,-0.3955,-0.043774,-0.33175,0.35416,0.044655,-0.3269,0.089469,-0.48811,-0.90318,0.80565,-0.95692,-0.36285,0.88364,-0.71156,0.88191,-0.89663,0.58051,-0.10905,0.33384,0.52758
-0.33167,-0.89584,-0.40899,0.87712,-0.53552,0.055765,-0.94066,-0.41815,0.42405,-0.84531,-0.18834,0.69177,-0.22383,-0.5276,-0.42736,0.85544,-0.31156,0.45873,-0.48026,0.7418,-0.13204,-0.87227,0.11347,0.20429,-0.31797,0.39802,-0.73893,-0.47094,0.068117,0.074299,0.12289,0.86384,0.11361,-0.028255,-0.0064815,0.23537,-0.81587,0.47051,-0.62862,0.78367,-0.61543,-0.28599,0.26302,0.046776,-0.11042,-0.46647,0.30429,-0.35357,0.08677,-0.2105
0.39749,0.8624,0.36036,0.18097,-0.95274,-0.93585,-0.055358,-0.44512,-0.024179,-0.32293,-0.067376,0.81879,-0.093481,-0.62536,0.92627,0.1754,-0.9345,0.90999,-0.77063,-0.0075789,-0.19639,0.48592,-0.99408,-0.097258,-0.58975,-0.8419,0.80302,0.89965,0.99634,-0.75137,0.5922,0.67246,0.69188,0.62426,0.6604,0.55065,-0.45535,-0.36891,-0.054321,-0.24464,0.79627,0.35096,0.23423,-0.19241,-0.77836,0.56575,0.95056,-0.69008,-0.82146,-0.87545
-0.60438,0.45732,0.055694,-0.11873,0.21487,0.65428,-0.33325,-0.98778,0.2352,0.16124,0.90307,-0.97732,-0.73429,0.091299,-0.53861,-0.79648,0.68723,0.52474,0.099339,-0.42468,0.21628,0.20679,-0.69369,0.82561,0.59077,0.018832,-0.55932,0.47746,0.80495,-0.61452,-0.060103,-0.42005,0.25351,-0.84801,-0.96645,0.46587,0.18146,-0.15519,-0.98073,-0.49961,-0.22142,-0.93292,0.28706,-0.89007,0.73024,0.076055,-0.73851,0.74799,-0.94442,0.40052
-0.93892,0.47568,-0.17681,0.88384,-0.77838,-0.32003,0.95169,-0.25058,-0.57244,-0.04953,0.93001,0.047365,0.51701,-0.48977,0.074643,-0.26625,0.5406,-0.83986,-0.5622,-0.63396,0.54017,0.59689,-0.18502,-0.99365,-0.95106,-0.026203,-0.2429,-0.99108,-0.97049,-0.022761,0.58234,0.91615,0.19973,-0.94333,-0.47188,0.47257,-0.99075,0.49688,0.71636,0.2054,-0.79591,-0.69995,-0.69693,-0.27136,-0.92889,0.87952,0.031672,-0.29573,0.91959,-0.20877
0.48815,-0.87319,0.20528,0.31183,-0.18508,0.69342,0.11089,-0.12613,0.29132,0.61064,0.53057,0.30069,0.13047,-0.38835,-0.58998,-0.44831,0.019293,0.87649,-0.37565,0.92244,0.88225,-0.67881,-0.53311,0.020159,-0.92044,0.71176,-0.15449,0.70147,0.56103,-0.18598,-0.16246,0.4461,-0.57873,-0.13299,-0.7162,-0.8802,-0.9385,-0.29382,-0.053021,0.2509,-0.3006,-0.1569,-0.51066,-0.80285,-0.55347,0.075219,0.063644,-0.2004,0.46449,0.67117
4.4871e-05,0.72088,0.50104,-0.096109,0.76815,-0.50786,0.69261,-0.3914,-0.23872,0.061556,0.14907,-0.22971,0.29727,-0.9689,-0.13192,-0.4678,0.41393,0.94895,0.94627,0.51252,-0.73707,0.47586,0.070628,-0.71108,0.059637,0.22881,0.94537,0.39114,-0.029421,0.46984,0.47906,0.72962,-0.49217,-0.71304,-0.93406,-0.5459,-0.24659,-0.10708,-0.70013,-0.96063,-0.64291,-0.57421,0.10028,0.21994,-0.72407,-0.1741,-0.73626,0.82225,0.78132,-0.51155
-0.040156,0.86881,0.16707,0.67939,0.096266,0.16298,-0.18387,-0.41828,-0.79257,-0.54538,0.83185,0.2986,0.59612,0.17498,-0.71558,-0.54692,0.58235,0.21422,-0.38162,0.90071,-0.48855,0.51408,-0.37679,0.0092998,0.86673,-0.76517,-0.64597,0.12486,-0.21956,-0.40019,-0.28495,0.0465,0.30395,0.61607,-0.42137,-0.067441,-0.66897,-0.93213,-0.50909,0.63947,-0.50182,0.52014,-0.51738,-0.5532,-0.39485,0.92818,0.28827,-0.20364,0.79051,0.92243
0.80944,0.9688,0.10359,0.065247,-0.26199,0.87535,-0.075964,-0.51497,-0.24498,0.41897,-0.0091352,0.52571,-0.5591,0.92512,-0.24883,-0.99736,-0.33866,0.91499,0.8925,0.34253,-0.24338,0.76262,0.41727,0.13643,0.20443,0.21375,0.76455,-0.32457,0.64618,0.61427,0.89964,-0.89446,-0.34217,-0.99649,0.78773,0.79792,-0.38755,0.45603,-0.88642,0.035889,0.28197,0.28661,0.0081277,0.16133,-0.49162,0.19825,-0.18539,-0.050134,0.58865,0.81345
0.21973,0.71788,0.16714,0.10777,-0.58331,-0.90443,0.65261,0.87337,-0.47428,-0.70273,-0.66798,0.15137,0.71578,0.6997,0.58712,0.78601,0.82735,-0.3387,-0.17888,-0.62789,0.98747,-0.14152,0.17412,0.28434,0.20235,-0.67164,0.10251,-0.3344,0.74884,0.82733,0.50029,0.92003,0.046348,-0.80756,-0.67379,0.088481,-0.46005,0.24275,-0.58951,0.81887,0.95151,0.67929,0.6025,-0.33898,0.46237,0.88253,0.38344,0.78824,0.070435,-0.36255
0.23533,0.57112,0.02364,0.36013,-0.11811,-0.89204,0.98241,0.72038,-0.51743,0.31623,-0.348,0.26384,0.80946,-0.98412,0.62563,-0.093005,0.15341,0.80243,-0.97933,-0.42032,-0.3181,-0.62503,-0.52162,-0.58613,0.28773,-0.20195,-0.35702,-0.84535,0.99671,0.53022,-0.96085,0.34442,-0.75057,-0.15665,0.97796,-0.88573,-0.38558,-0.74841,-0.069022,-0.76275,0.84133,-0.58441,0.32703,0.49299,0.27537,0.52201,0.39054,0.37502,-0.3152,0.53449
0.71888,0.026755,-0.83481,-0.26562,0.91239,-0.95876,0.047895,-0.20554,0.24585,0.26797,-0.40713,-0.44359,-0.41596,0.26805,0.80758,0.15684,-0.42418,-0.99927,-0.37986,-0.88358,0.7991,-0.39394,-0.87188,-0.31963,0.84386,0.064715,0.79969,-0.083398,-0.60868,-0.33158,0.51033,-0.86907,-0.094607,-0.52977,-0.7374,0.58899,0.16804,-0.56909,-0.07805,0.8923,-0.89239,-0.1233,-0.92645,0.56321,0.95049,-0.77826,-0.39648,0.31999,-0.43843,0.51082
0.61098,-0.6448,0.43914,-0.52142,-0.75195,0.36296,0.85087,-0.041162,0.045856,-0.54139,0.1166,0.67967,0.45174,-0.28142,0.080751,-0.36879,-0.46627,-0.03344,-0.68959,-0.91187,-0.52504,-0.35849,-0.99326,-0.34505,-0.56149,0.75042,0.084223,0.31438,0.73994,0.43868,0.8236,0.95827,0.98519,0.9126,-0.065401,0.5497,0.077037,-0.38325,-0.29789,0.85409,0.80617,0.46424,-0.58394,-0.76173,-0.33784,-0.42973,0.66416,0.54949,-0.051077,0.19309
0.15344,-0.20282,0.99231,0.15785,-0.058474,0.19726,0.47804,0.12999,-0.17352,-0.63554,-0.86505,-0.14633,-0.32111,-0.77188,0.63573,0.98803,0.78036,-0.70505,0.98817,-0.44088,-0.56,-0.11599,-0.62185,0.22993,0.76981,0.31808,-0.074221,0.14391,-0.38502,-0.93281,-0.30449,-0.41031,-0.20154,-0.25703,-0.25968,0.018042,0.58134,-0.9381,-0.11799,-0.81039,-0.62,-0.7905,-0.19375,-0.13802,-0.15862,-0.57481,0.54092,0.6171,-0.98284,-0.71454
-0.63416,-0.73214,-0.29093,0.73377,0.71379,-0.77194,0.13486,-0.020761,-0.56442,-0.66729,-0.86204,0.26324,-0.45464,0.081636,0.41683,0.96779,-0.2678,-0.37002,-0.099522,-0.65906,0.98215,-0.27623,-0.017593,0.18238,-0.90236,0.57525,0.61595,-0.19578,-0.17753,0.23125,-0.85743,0.89982,-0.87618,-0.01736,0.31512,-0.9485,-0.25456,-0.59709,-0.34119,-0.16949,0.98523,-0.11087,0.83648,-0.70931,-0.039149,-0.17047,0.97374,-0.36406,-0.1504,-0.90619
-0.52014,-0.93822,0.94252,-0.18645,-0.91322,0.59249,0.93756,-0.46038,0.71711,-0.70079,-0.66643,0.66693,-0.65945,-0.16716,-0.91358,0.9291,-0.69997,-0.65725,0.090437,0.3542,0.90221,0.2512,0.23294,0.37585,0.62408,-0.74795,-0.27836,0.8694,0.63268,-0.77563,0.71018,-0.65316,-0.41408,-0.46498,0.74713,0.95106,0.50402,-0.86514,0.14419,-0.35428,-0.347,-0.018895,0.21598,-0.80098,0.81967,0.0033424,0.22435,-0.98091,0.43597,0.72599
0.77302,0.87828,-0.3071,-0.77477,0.38325,0.2357,0.649,0.97948,0.72202,-0.59451,0.89488,-0.45963,0.32804,0.034197,-0.70811,0.33253,0.89266,0.18581,-0.47534,0.80484,0.27643,0.87765,-0.75445,-0.66712,-0.93482,0.049948,0.94201,-0.27893,-0.26349,-0.8988,-0.81129,-0.99819,0.10454,0.15256,-0.41025,-0.51526,0.30516,-0.9997,0.98471,0.69251,-0.54491,0.38885,-0.5634,0.027351,0.14425,0.68241,-0.26872,0.82849,-0.17893,0.18493
-0.94265,-0.39739,0.77309,-0.11231,0.95797,-0.85957,0.91922,-0.63265,-0.43212,0.90992,0.62218,-0.1984,0.071703,0.77225,-0.53333,0.45232,0.30167,0.31522,0.76508,-0.29603,0.0082617,-0.42619,-0.73394,0.30445,-0.16992,0.79896,0.11103,0.89543,-0.14757,-0.88958,0.099136,0.75691,0.48025,0.040091,-0.45435,0.80202,0.10388,0.27286,0.4357,0.8959,0.88742,0.86162,-0.30217,-0.62989,-0.15033,0.55921,-0.69852,-0.80495,0.20914,-0.8407
-0.020197,-0.40893,-0.09061,-0.39963,-0.43346,-0.86144,0.29269,0.72331,0.23079,-0.96818,0.42091,0.10851,0.65822,-0.70121,-0.5066,-0.33191,0.96443,-0.30207,-0.79388,-0.79968,-0.28376,-0.5108,-0.37164,0.53728,0.18933,-0.78183,0.53964,-0.93975,-0.81757,-0.94756,0.83105,0.70107,-0.36319,0.95774,-0.83822,-0.10323,0.70184,0.60551,-0.27801,0.45844,0.62169,-0.6897,-0.46416,0.45055,-0.091164,0.16731,0.9514,0.72864,0.18176,-0.50578
-0.66415,-0.33413,-0.17315,-0.19723,-0.73244,-0.72799,-0.24085,-0.93473,0.55898,0.91503,0.94049,-0.11227,-0.46528,-0.13065,-0.65943,0.045546,-0.61233,-0.89261,0.64713,0.586,0.5369,0.84171,-0.82429,-0.20847,-0.60641,0.26914,0.36024,-0.11781,0.335,0.91087,0.044023,-0.32718,-0.012284,0.32148,-0.62731,-0.87441,-0.1495,-0.21132,0.14546,0.3677,0.84889,-0.89464,-0.22923,-0.92278,0.90242,0.037965,0.41253,0.91559,0.95721,0.69396
0.95736,-0.065864,-0.56454,0.66673,0.37056,0.57778,-0.046851,-0.33608,0.90969,-0.94862,0.99685,-0.81923,-0.64769,-0.88192,-0.52989,-0.45329,0.65749,-0.90566,-0.14565,-0.063135,0.56873,0.85243,-0.18241,-0.20747,0.59218,-0.83831,-0.5896,0.40142,0.46262,0.050428,-0.89607,-0.80334,0.25734,0.69248,0.52002,-0.80148,0.1488,-0.47453,-0.23933,0.28282,0.437,0.21735,0.75655,-0.64951,0.16589,-0.40184,0.53317,0.73003,-0.44805,-0.85542
0.42539,0.2964,-0.74869,-0.19274,0.81891,-0.8152,0.82378,0.49749,0.83921,0.94222,0.97491,0.48876,-0.13763,-0.23794,-0.44908,0.43676,-0.012396,-0.88828,0.84069,0.37468,-0.94216,-0.38012,-0.43536,0.38424,-0.57802,-0.17754,0.66925,0.40599,-0.39836,0.51251,-0.11818,0.25624,0.50629,-0.82571,0.81922,-0.263,0.53651,-0.43234,-0.25583,-0.36823,0.75851,-0.51412,0.11005,0.69727,-0.21713,0.3803,-0.64528,0.34779,-0.91443,0.62915
0.00094325,-0.94954,-0.38217,-0.21965,0.22174,-0.52426,-0.97029,0.28873,-0.23037,-0.40481,-0.69983,-0.93477,-0.04869,0.44474,0.90321,0.55604,0.18156,-0.85698,0.056024,0.36616,-0.89512,-0.84705,0.26118,-0.52465,-0.65117,0.42527,0.73093,0.020333,-0.32401,0.17964,0.38238,-0.19917,0.38777,-0.15425,0.28925,0.027061,0.079029,0.42729,-0.15145,0.46429,0.73012,0.1166,-0.35018,0.65982,0.11616,0.25582,-0.51896,0.11233,0.74131,0.76863
-0.057823,0.68441,0.45221,-0.2791,0.79997,-0.5127,-0.68661,-0.66152,-0.67471,0.050146,0.91696,-0.14051,0.57044,-0.80976,-0.30666,-0.83787,-0.91022,-0.96865,0.74167,-0.15713,-0.35316,0.56176,-0.56049,0.89777,0.22768,-0.79916,-0.91696,0.22449,0.46864,0.47781,-0.47724,0.8561,-0.72624,-0.91719,0.034899,-0.23986,0.96854,-0.61171,0.48625,-0.6847,-0.28515,0.357,0.29707,-0.59208,0.97311,0.55282,0.80898,-0.097291,0.77569,-0.25951
-0.88076,0.11807,0.56574,-0.71949,-0.61313,-0.79036,-0.056864,0.90441,0.5935,0.72468,0.060918,-0.92548,-0.7387,0.33438,-0.40536,-0.55684,0.12892,0.94736,-0.29438,0.31869,0.59937,-0.73851,0.30851,-0.7285,0.88211,0.61989,0.22839,0.49274,0.97091,-0.36117,0.79182,0.76121,0.81392,0.20426,0.40319,-0.99661,-0.78883,0.16016,-0.27984,0.52014,-0.72745,-0.06699,0.22081,-0.024945,0.56725,0.73599,0.4676,-0.34011,-0.2561,0.60069
