0.75586,-0.27434,0.40505,0.068514,0.87654,-0.68812,0.99567,0.16849,-0.0098215,0.76543,-0.49226,0.75017,0.32771,0.38138,0.32622,0.62823,-0.83111,0.89771,-0.91968,-0.86839,-0.3315,0.69374,-0.40292,0.28725,0.92319,0.14378,-0.86017,0.27023,-0.1843,0.76391
0.56207,0.76086,0.15763,0.13512,-0.3504,-0.9284,-0.53523,-0.17999,0.84878,-0.43767,0.75332,0.82708,-0.13394,-0.4906,-0.57769,0.51741,-0.8381,-0.279,-0.77741,0.14227,-0.28215,0.51076,0.98294,0.018822,0.86259,-0.71662,0.95362,0.3509,-0.86431,0.048749
-0.44997,0.22288,0.093232,-0.53293,-0.98388,0.49657,-0.24952,0.5553,-0.19049,0.21726,0.48863,0.6958,0.54431,-0.40717,0.55388,-0.82396,-0.19871,0.25471,-0.044044,0.29827,0.90555,0.67717,-0.11309,-0.54486,0.37211,-0.24512,0.16017,0.27446,0.50406,0.62472
-0.51279,-0.61403,0.15481,0.73279,-0.60694,0.17686,0.41764,-0.69547,0.80665,0.1653,-0.49884,-0.65747,-0.48255,-0.67602,-0.21105,-0.91043,0.37302,0.64358,0.90696,0.29251,0.54444,-0.3271,0.41907,0.51172,0.001318,-0.92206,-0.63866,-0.38532,-0.62937,0.1547
-0.80642,0.91402,0.32438,0.69488,-0.050947,0.34696,-0.89351,-0.72569,-0.40628,0.58089,0.10373,-0.33471,0.81925,-0.35637,0.52451,-0.52796,-0.1817,-0.33325,0.65293,-0.11268,0.13868,0.34966,0.3796,0.93036,-0.30371,0.57838,0.70343,0.32743,-0.15614,-0.21505
0.28154,0.5952,0.19546,-0.90759,-0.54784,-0.92373,0.14239,-0.34765,-0.10136,0.9583,0.62469,-0.31636,-0.82105,-0.36632,-0.41399,-0.51083,-0.87648,0.95955,-0.60176,-0.3102,-0.84234,-0.57401,-0.30095,-0.14216,0.14578,0.77054,-0.57617,0.77463,0.84623,-0.030694
-0.38389,-0.90114,0.18772,0.47249,-0.0024736,0.04309,-0.047492,-0.78785,0.19809,-0.85938,0.28278,-0.93291,0.2627,-0.52008,0.41901,-0.69214,-0.48807,-0.62693,0.77814,-0.10775,0.6994,-0.46431,-0.22175,-0.28826,-0.30489,-0.27249,0.23785,0.55088,-0.77526,0.95339
-0.184,-0.36676,-0.403,0.6483,-0.25097,0.39991,0.70578,0.89579,-0.94412,-0.60153,0.10393,-0.074002,-0.50158,-0.79608,-0.73441,-0.71859,0.74046,-0.00013011,0.9661,-0.55825,-0.73485,-0.74234,-0.30035,-0.39899,0.27075,0.75725,0.5379,0.46315,-0.0047424,0.77643
-0.51978,0.88716,-0.20457,-0.0073784,0.06268,0.14362,-0.29322,0.91357,0.3877,0.37886,0.36862,0.12959,-0.87115,-0.85894,-0.23994,-0.2813,0.40067,0.68552,0.30443,0.74809,-0.039037,0.3741,0.13719,-0.49277,0.6543,-0.48308,0.64972,0.91778,0.19453,-0.1301
-0.70149,0.57976,0.70379,0.58563,0.5457,-0.28055,-0.6681,-0.77084,0.0289,-0.67648,-0.73799,-0.937,-0.26122,-0.33855,0.66711,0.5515,0.81454,-0.61604,-0.13379,0.546,-0.28169,0.0018541,0.091267,-0.8335,-0.72586,-0.33895,0.78476,0.64845,-0.47573,0.54016
-0.43519,0.12475,0.41932,0.57942,0.50771,-0.33827,0.059049,0.65827,-0.51897,0.37811,0.49246,-0.37938,0.80553,0.30393,0.19886,0.33863,-0.12418,-0.32417,-0.83243,-0.21701,-0.21252,-0.56088,0.49023,0.051129,0.87081,-0.55346,0.79554,0.19386,0.60592,-0.25127
-0.99053,-0.42071,0.064468,-0.48455,-0.48668,0.28442,-0.31231,-0.80582,-0.438,-0.27089,-0.90156,0.85904,-0.5058,-0.79243,0.073084,-0.70332,0.091126,-0.70088,-0.20513,0.7069,0.72612,0.94928,-0.70937,-0.84588,0.78509,-0.23079,-0.30777,-0.068891,0.11455,0.83044
-0.07929,-0.032861,0.094543,-0.7959,-0.084517,0.4833,-0.13198,-0.080866,-0.48182,-0.88628,-0.46794,0.60559,-0.49603,-0.62854,0.99853,0.35007,0.070637,0.23551,0.31639,-0.61135,0.79305,-0.9558,0.089867,0.59808,0.122,0.90414,-0.88293,0.014416,-0.40954,0.061751
0.38448,-0.87499,-0.28957,-0.13246,-0.019701,-0.62502,-0.86442,0.19556,0.96158,0.90951,-0.73855,-0.034947,0.16516,0.084672,0.010017,0.091911,0.7685,-0.077975,0.15,0.83138,0.10968,-0.077034,-0.55716,0.16157,-0.046961,-0.31042,0.72862,0.46598,0.88372,0.23722
0.96104,-0.82923,0.4724,-0.95873,0.17712,-0.3157,-0.85448,-0.56682,0.99768,0.072285,0.59192,-0.65457,-0.029073,-0.7352,-0.41298,-0.2618,-0.30619,-0.62988,0.28269,-0.85705,0.39506,-0.95962,-0.041356,-0.47727,0.32345,-0.2441,0.086661,-0.46131,0.33054,0.13921
-0.29867,-0.14481,0.022809,0.23972,0.3446,0.4099,-0.70797,0.6409,-0.38442,0.42576,0.18021,0.32477,0.76575,0.11115,-0.60234,-0.46269,-0.98107,0.0039656,0.62774,0.40993,0.9849,0.37818,-0.45886,0.83097,0.24328,0.41151,-0.67765,-0.80346,-0.43162,0.17067
-0.99831,0.34406,-0.3874,-0.75999,0.86431,-0.071582,-0.97628,-0.18904,0.93119,0.5422,0.87941,-0.69681,-0.36671,0.67854,-0.57217,0.21736,-0.11653,-0.90251,0.14592,-0.36314,-0.80862,0.65108,0.48772,-0.35168,-0.50611,-0.71311,-0.56184,0.37894,-0.91936,0.27775
-0.95257,0.94992,0.69934,0.20474,-0.55772,0.4711,0.23234,-0.13371,0.11954,-0.20601,-0.77387,0.95354,-0.76726,-0.16336,-0.80198,0.084407,-0.8588,-0.4683,-0.14634,-0.72585,0.5333,-0.14728,0.76834,0.053052,0.4856,0.28574,0.27735,0.63957,-0.97069,0.86087
-0.02041,-0.65384,0.93199,-0.84777,0.51826,-0.86218,0.24523,0.94019,-0.3437,-0.72509,0.59832,-0.1559,-0.20955,-0.8799,-0.94713,0.73181,0.013924,0.074566,0.85739,-0.74248,0.86708,-0.307,-0.68905,-0.74847,-0.05808,0.16448,0.74879,-0.30654,-0.85075,0.46011
0.26628,-0.57828,-0.96125,0.13872,-0.90682,0.14115,0.1052,-0.096878,-0.18581,-0.5769,-0.84251,-0.9132,0.61902,0.75518,-0.30689,-0.66456,-0.043366,-0.0080466,-0.13149,0.91829,-0.52307,0.95808,0.42645,-0.6251,0.99893,-0.79848,0.72469,-0.84563,0.94159,-0.95779
0.21769,-0.052886,0.17629,0.090527,0.031034,0.74341,-0.33049,0.37635,-0.5086,-0.12214,0.35372,-0.34471,0.16532,-0.27831,-0.44132,0.80031,0.73543,0.24475,0.056907,0.30966,0.92374,0.47338,-0.94587,-0.081576,-0.89785,-0.73016,0.24642,-0.87465,0.47209,-0.93327
0.75127,-0.66749,-0.96218,0.3392,-0.9524,0.41923,-0.27248,0.91342,0.38338,-0.29903,-0.63115,-0.91159,0.73572,-0.29457,-0.16257,-0.15434,0.10489,-0.16142,-0.070601,0.12319,0.17094,0.46637,-0.59274,0.85948,-0.4158,0.061854,0.39944,0.45279,-0.13938,-0.18237
0.50317,0.15081,0.13706,-0.15856,0.3375,-0.21492,0.48245,-0.60307,0.5336,0.70945,0.92948,-0.45521,0.40677,0.39327,-0.43903,0.090153,0.71398,-0.8636,-0.46619,-0.72571,0.61521,-0.29474,-0.85533,-0.4943,-0.92617,-0.26164,-0.0046692,-0.69412,0.73858,-0.28815
-0.77762,-0.22831,0.49303,0.77417,-0.089948,0.94243,0.52662,-0.7553,0.87185,0.99544,-0.35267,-0.90213,-0.32844,-0.33626,-0.63194,0.66841,-0.12383,-0.093423,0.19163,0.12646,0.093286,0.1369,0.28318,-0.34938,-0.46446,0.089437,-0.22269,-0.44376,0.96123,0.016678
0.31954,0.6412,0.78638,0.9051,-0.7728,0.31231,0.24008,-0.073886,0.019674,-0.51734,-0.64944,-0.71605,0.74958,0.41409,-0.30724,0.51845,0.0009345,-0.33169,0.50329,-0.70603,0.1008,0.23493,0.48049,0.38796,-0.17324,0.26538,0.090776,-0.11699,0.81495,0.21542
-0.87512,0.37543,-0.75597,-0.71007,0.01584,-0.51144,-0.19711,0.18854,0.11486,-0.72822,0.59285,-0.61107,-0.55467,-0.99841,0.47133,-0.8565,-0.23525,-0.53142,-0.12632,0.70263,-0.40416,-0.52275,-0.70788,-0.5278,0.33448,-0.4365,0.050164,0.60869,0.50536,-0.47494
0.089543,0.76474,-0.52038,-0.061239,-0.70338,0.75039,0.4497,-0.25612,0.75137,-0.0052188,0.74228,0.6532,0.21081,0.83428,0.82901,0.42996,-0.0049609,0.73155,0.60473,0.052462,0.32634,-0.72945,-0.26392,0.89761,-0.72612,0.11538,-0.5431,-0.74871,-0.54009,-0.32389
-0.049228,-0.87115,-0.81857,-0.17347,0.5064,0.14375,0.30211,-0.55901,-0.20519,-0.92264,-0.878,-0.26114,0.32589,0.12617,-0.63209,0.96992,-0.54119,-0.87648,-0.45738,-0.71148,0.62761,-0.48949,-0.2821,0.10856,0.51401,-0.15264,0.89065,-0.13443,-0.55535,-0.54832
-0.22467,0.71786,-0.57381,0.52277,-0.45105,0.37758,0.096031,0.3173,0.77486,-0.16889,0.84694,0.97276,-0.1022,-0.52954,0.031359,0.42331,-0.36103,-0.87469,0.42566,0.0058643,-0.98532,0.32303,0.73317,0.67678,0.4243,0.70168,0.69439,0.97413,0.94133,0.25213
-0.72127,0.11902,-0.20368,-0.81065,-0.55657,0.33151,-0.29113,0.98803,-7.7193e-05,0.96075,0.5444,-0.41181,-0.9058,0.56712,0.82191,0.62945,0.98903,0.52191,0.36274,-0.0059818,-0.36483,0.13621,0.70541,-0.55968,-0.58285,0.26502,-0.12702,0.51203,-0.43628,-0.6172
-0.25157,0.43348,-0.58506,-0.10945,0.60131,0.16873,0.19279,0.27562,0.16969,0.57905,-0.23354,0.69757,-0.60649,0.70685,0.07932,0.93508,-0.60074,-0.51721,-0.41055,-0.15896,-0.48725,0.78587,-0.30292,-0.6774,-0.56873,-0.043342,-0.66573,0.37874,0.2469,-0.60426
-0.69932,0.074653,0.27104,-0.90271,-0.87967,0.85023,-0.46438,0.60065,0.81345,0.1914,0.29754,0.74093,-0.71304,-0.15001,-0.014064,-0.54882,0.77355,0.18641,0.992,0.33257,-0.60603,-0.62838,-0.34139,-0.71861,-0.87699,0.32886,0.033432,-0.83965,-0.16338,0.45622
-0.44728,-0.23282,-0.57932,0.65621,0.25168,-0.65063,0.21066,0.51744,0.5695,-0.28214,-0.87266,0.4444,-0.97088,0.50711,0.83647,-0.27263,0.80333,0.35696,-0.98666,-0.14722,0.24479,-0.15614,-0.46751,0.13803,0.093488,-0.33939,0.77293,-0.93316,0.5256,-0.83368
0.28421,0.20915,0.62084,0.80334,-0.6027,0.024643,-0.20507,-0.096231,-0.98731,0.55681,0.86497,-0.1754,-0.8074,0.0122,0.95967,-0.60351,0.46825,0.10204,-0.12127,-0.32468,-0.38678,-0.92409,0.76141,0.2601,0.24626,0.24618,-0.53082,0.77519,0.51613,0.031015
0.49156,-0.98958,0.42002,0.71394,0.9169,-0.15397,0.51674,-0.20605,0.85317,-0.072287,-0.7915,0.85689,0.85188,0.66069,0.65789,0.065431,-0.16682,0.078471,0.95485,-0.66367,-0.6037,0.29503,0.92227,0.83676,-0.81464,-0.69119,0.94228,-0.95063,-0.040859,-0.33772
-0.30424,-0.39902,0.54746,-0.27558,-0.91976,0.41832,0.57331,-0.0005985,-0.47984,0.34772,-0.51658,-0.48716,-0.90256,0.039552,-0.65843,0.41158,0.65129,0.95137,-0.86496,-0.4432,0.02267,-0.61111,0.1312,0.087941,-0.93915,0.80122,0.89259,0.79956,-0.37286,0.26048
0.5387,-0.8945,-0.59948,-0.89219,-0.54904,-0.61316,-0.21145,0.52462,0.11049,0.27932,-0.26141,0.6274,0.28141,-0.033422,-0.76236,0.57736,0.24809,0.57713,-0.67251,-0.50959,-0.91572,0.97585,-0.24325,0.072729,-0.63941,0.53541,0.35259,0.36383,-0.55809,0.71675
-0.70422,-0.54837,0.55271,0.38662,0.15075,-0.35905,-0.47872,-0.11237,0.33101,0.77214,-0.80205,0.81493,0.099417,0.85019,0.81187,0.71892,0.97786,0.32383,-0.65209,-0.40123,0.081637,0.92163,0.75319,-0.69497,-0.54349,0.29901,-0.092721,-0.94104,0.027042,0.81529
0.41754,0.55792,0.46911,0.53228,0.46696,-0.86138,-0.32966,-0.73019,-0.4726,0.86279,-0.012379,-0.48046,0.35601,0.24982,-0.23717,-0.1056,0.4201,0.31911,0.19321,0.7006,-0.50658,0.69845,0.80726,-0.27323,0.99015,-0.66898,-0.62639,-0.77564,-0.89735,0.2307
0.16777,0.197,-0.36299,-0.29051,0.84148,-0.10169,-0.89587,-0.72892,-0.21172,-0.68422,-0.75056,-0.65429,0.48641,-0.82307,-0.47117,0.84572,-0.95707,0.10045,-0.82835,-0.26007,0.24253,-0.37634,0.51356,0.22188,-0.10889,-0.90336,0.7198,0.57897,-0.61553,0.66496
0.90124,-0.4305,0.28357,-0.53691,-0.35473,0.77051,-0.039432,0.045211,0.44759,-0.023595,0.4943,0.71876,-0.11514,0.79691,0.97173,-0.91025,0.91756,-0.78027,0.73811,-0.076428,0.26318,0.25168,0.67161,0.95272,0.68758,-0.92833,-0.17614,0.53233,-0.5442,-0.87262
-0.72081,0.47657,0.074106,0.36118,-0.19831,-0.74142,-0.73865,0.44322,0.35377,-0.17239,0.84497,-0.73066,-0.53991,-0.82737,-0.33283,0.57516,-0.50507,-0.83554,-0.032739,0.63465,-0.4622,-0.35141,0.74488,0.18534,0.80946,0.10878,-0.88064,0.32647,-0.38092,-0.36688
-0.89986,0.64201,0.71517,0.45867,0.96409,-0.89294,0.58261,0.98549,0.47159,0.14806,-0.72847,0.66995,0.39868,0.74185,-0.1494,0.41651,0.056289,0.81856,0.57383,0.67296,0.27279,0.99234,0.49139,0.47257,0.95252,0.10912,0.79675,-0.74406,0.97675,0.18749
0.73433,0.21549,-0.3713,-0.68174,0.86611,0.56561,-0.165,-0.098441,-0.0061546,-0.40895,-0.6064,-0.77679,0.26187,-0.67488,-0.18019,-0.87745,0.98756,-0.22753,-0.32921,-0.17689,0.5044,-0.093036,-0.28202,0.73607,0.2295,0.10557,-0.9506,-0.96858,0.94402,-0.12591
0.24174,-0.27136,0.21943,-0.35377,0.29728,-0.91175,-0.76793,0.5432,0.30841,-0.49135,-0.18247,-0.86524,0.99994,0.32117,0.089718,0.63156,-0.35214,-0.53026,-0.26224,0.52097,-0.64293,-0.066796,-0.74576,0.79897,0.76779,0.43621,0.53912,0.27934,-0.71213,0.75358
0.82356,0.54568,-0.52262,-0.76671,-0.78289,0.85121,0.56586,-0.1087,0.82194,0.59468,0.58004,-0.3091,0.87524,-0.63151,-0.70935,-0.47311,-0.022936,-0.095222,-0.3209,0.43661,-0.69491,-0.32811,0.76774,0.69265,0.45802,-0.94063,-0.54952,0.72293,0.46116,0.1796
-0.58246,-0.3415,0.72235,0.17428,0.56743,0.68545,-0.0010316,0.8434,-0.053193,0.051433,0.080519,-0.098892,-0.46554,0.037932,0.38485,-0.90948,-0.3946,0.45812,-0.85822,0.65138,-0.023942,-0.71697,0.474,-0.78112,0.16086,0.44219,-0.53033,0.91668,-0.26124,-0.6169
-0.17078,0.064064,0.21495,-0.30665,-0.9756,-0.15835,-0.33096,0.78126,-0.69011,-0.26871,-0.63758,0.21358,-0.70865,-0.31478,-0.80219,0.38992,0.15603,-0.03203,0.027342,-0.93525,-0.49076,-0.48683,-0.36266,0.3676,0.78288,0.5593,-0.25008,0.12497,0.71769,0.22871
-0.33892,0.11151,0.47217,-0.31424,0.31763,0.21563,0.49,0.55877,0.90492,0.5368,-0.44605,0.45762,-0.9442,-0.58524,0.88823,-0.40966,0.80708,-0.88723,0.59257,-0.40917,-0.041278,-0.98801,0.24308,0.27235,-0.70194,-0.34986,0.5133,0.79038,0.67896,-0.84183
0.03168,-0.80226,0.334,-0.054389,-0.65476,0.37496,0.52802,0.28185,-0.2704,-0.55318,-0.51845,-0.73954,-0.013679,-0.14091,-0.80424,0.68795,0.85371,0.30938,-0.45471,0.71543,0.3011,-0.72757,-0.28475,0.87143,0.30823,0.22725,0.482,0.58381,0.87164,0.38713
0.66578,0.23646,-0.53718,-0.073712,-0.50751,-0.21774,-0.50813,-0.22027,0.34667,-0.3951,-0.022272,-0.46344,-0.36339,-0.37021,0.14982,0.37214,-0.98561,-0.89668,0.15254,-0.13031,0.4016,0.74416,-0.56709,-0.61977,0.39904,-0.4428,-0.64216,0.19588,0.12365,0.27654
0.99621,-0.91316,-0.5662,0.93418,0.29294,0.51952,0.42647,0.24687,0.42849,0.64874,-0.14511,-0.65185,-0.53659,0.57351,-0.42271,0.36641,-0.2949,-0.45152,0.4023,-0.62277,-0.022945,-0.46386,-0.004773,-0.77509,-0.41232,0.86407,0.44907,-0.039721,0.64455,-0.6656
-0.46056,-0.91385,-0.26245,0.85277,0.40465,-0.33004,0.80752,-0.65336,-0.8513,-0.35567,-0.52515,-0.42423,0.76184,-0.8237,0.68564,0.63151,-0.70423,0.29655,-0.14216,-0.58425,-0.054768,-0.56598,0.18914,0.85,-0.22078,-0.99769,0.38064,-0.27719,0.76292,-0.51845
-0.24671,0.37242,-0.87308,0.75737,-0.49144,-0.028952,-0.95284,-0.4169,0.29431,0.88959,-0.079394,0.63765,0.41923,-0.11331,0.99668,0.28374,-0.80842,-0.92387,-0.84749,-0.45584,0.28862,-0.61854,-0.48334,-0.58243,0.46081,0.27486,-0.41652,0.32745,-0.38452,0.96644
0.93799,-0.22629,-0.21089,-0.49113,-0.28081,-0.38113,0.3804,-0.20745,-0.83858,-0.31674,0.53658,0.87927,0.32077,-0.29957,-0.95847,0.050097,0.11258,-0.42558,-0.71985,0.036093,-0.21179,0.55547,0.57811,-0.97705,0.68264,0.81053,0.48799,0.056032,-0.87336,-0.64363
-0.025571,0.88084,-0.64692,0.4796,-0.84447,-0.72758,-0.89269,-0.054578,0.047451,-0.75304,0.91826,-0.20076,-0.8034,0.92074,-0.078553,0.89222,0.94319,-0.46998,-0.75828,0.53696,0.51589,-0.16734,0.052204,-0.7388,0.27617,-0.60716,-0.58514,-0.3092,-0.94855,0.73634
-0.048186,-0.4533,0.6826,0.021458,0.81601,-0.51734,0.15421,0.21317,0.024646,-0.59181,-0.79827,-0.24974,-0.33199,0.9102,-0.16702,-0.92167,0.90348,0.54975,-0.63199,-0.96694,-0.44517,-0.15338,-0.90526,0.46564,0.8205,0.033598,0.93857,-0.75953,0.61392,-0.11398
0.19723,0.99164,0.94037,-0.76023,-0.14845,0.95918,0.41741,-0.48593,-0.55051,-0.15793,-0.40308,0.79868,-0.77314,0.18714,-0.97792,0.49574,-0.85946,-0.8886,-0.65316,0.80895,-0.36595,0.92352,0.39701,-0.10254,0.87898,0.64646,-0.70339,-0.74992,-0.19969,-0.11261
0.3149,-0.46457,-0.24264,-0.42732,-0.090575,-0.69647,0.32248,-0.094524,0.69754,-0.1778,0.12899,0.89463,-0.53427,0.45461,0.88148,-0.013818,0.23239,-0.99069,0.60939,0.81643,-0.085957,-0.49071,-0.64918,-0.54349,-0.91012,-0.40665,0.15961,-0.78503,0.90933,0.23717
0.16294,-0.046976,0.053562,-0.40162,0.33899,-0.50804,0.66872,-0.50282,0.62702,-0.92363,0.70312,0.78493,-0.062543,-0.49293,-0.015807,-0.017002,-0.54063,0.61556,0.37026,-0.56577,0.20247,0.46471,-0.23352,0.73192,-0.64391,-0.71919,-0.19133,-0.3019,-0.71973,0.31745
0.87242,0.70392,-0.084221,0.33825,0.70953,-0.33157,0.56281,-0.35758,0.36448,-0.12451,-0.68045,-0.5313,0.83156,-0.46127,-0.051505,-0.35698,-0.953,0.42107,0.1765,-0.6051,0.65922,0.21014,0.43084,0.48385,0.51009,0.44898,-0.12818,-0.10723,-0.034218,-0.2018
-0.78272,-0.071849,0.96868,0.30371,-0.88087,0.08165,-0.584,-0.73886,-0.40531,0.33138,0.73918,-0.73042,-0.43856,-0.30474,-0.91365,0.28211,-0.65441,-0.076101,-0.49452,0.53571,0.88689,-0.98201,-0.67442,0.89779,-0.89799,-0.40079,-0.71022,-0.7657,0.52274,0.69602
0.02743,0.97787,0.88579,-0.17579,0.34554,-0.16246,-0.6295,0.50345,-0.30796,0.15535,-0.48191,-0.99417,0.66796,-0.68956,0.35656,0.16788,-0.81315,0.2278,-0.54912,0.2676,-0.34612,0.28723,-0.53236,0.88294,0.70874,-0.34053,-0.92564,0.47455,0.40253,0.82114
-0.28303,0.21656,-0.53131,-0.33084,-0.67592,-0.72504,-0.43422,0.50562,-0.036215,-0.95734,0.60204,-0.54997,-0.22903,-0.65073,0.44014,0.72973,0.74807,0.56254,0.33391,0.59808,0.47757,0.6966,-0.78239,-0.47648,0.81684,0.59989,0.26279,-0.33887,-0.41526,-0.12213
0.001427,-0.72848,0.090758,0.58138,0.97943,-0.68147,-0.072557,-0.91926,0.63568,-0.34282,-0.9228,-0.22614,0.37814,0.023897,-0.40713,-0.039274,0.39159,-0.55558,0.56638,-0.013123,0.20152,-0.22282,0.11434,-0.47717,-0.52748,0.88998,-0.18123,-0.37211,-0.94939,0.05265
-0.84213,0.45255,-0.98986,-0.14274,0.72156,-0.44772,-0.7065,0.75346,-0.84961,-0.42368,0.55875,-0.89939,-0.85708,0.87323,0.82377,0.45865,0.57002,0.91736,0.010402,-0.97897,-0.89973,0.47926,-0.07647,0.38968,-0.44249,0.17073,0.33049,0.55091,-0.31081,0.37571
-0.82512,0.51916,-0.36866,0.52641,-0.92849,-0.51083,0.36213,0.68203,0.15926,0.2093,0.9122,0.54867,-0.31416,0.67491,0.54431,0.96692,-0.89365,-0.67981,-0.44854,0.9777,-0.86409,0.65577,-0.10555,0.45257,0.97029,0.63413,-0.23503,-0.69466,-0.73887,-0.11107
-0.13064,0.31756,0.8326,0.34938,0.33943,-0.26979,0.11795,-0.1346,-0.99632,0.83825,0.59042,0.98987,0.38109,-0.97881,0.40808,0.48614,0.7151,0.79082,-0.71448,0.017922,0.55581,-0.24612,-0.82946,-0.49742,-0.85219,-0.15542,-0.87188,0.81612,-0.71776,-0.7202
0.029327,-0.37183,-0.35758,0.50983,-0.42566,-0.056913,0.44253,-0.8536,-0.64678,-0.47837,-0.59307,0.39016,-0.30423,0.7036,0.50322,-0.33318,0.7476,-0.75942,0.96474,-0.77021,0.056424,0.65457,-0.16701,-0.89551,-0.069429,0.60948,0.078993,-0.70147,0.93282,0.15176
-0.52641,0.1805,-0.79513,-0.97822,0.0055279,0.41405,0.20881,0.8654,0.25044,-0.50087,-0.39683,0.52548,-0.63764,-0.92003,0.30248,0.65691,0.14142,-0.66383,0.97693,-0.15624,-0.7479,-0.54126,0.67093,0.08909,-0.62124,-0.45216,0.37435,0.25955,0.95194,-0.87224
0.42467,0.62415,0.88352,-0.86989,-0.10374,0.75331,-0.16867,-0.4293,0.41392,-0.17022,-0.31488,0.20842,0.37344,-0.18666,-0.43971,-0.71629,0.20217,-0.72297,0.98456,0.91862,-0.77568,0.88427,-0.15881,0.099603,0.75935,-0.0089906,0.058187,-0.60862,-0.16704,-0.062191
0.72295,0.48799,0.83037,-0.95842,-0.84382,-0.92347,-0.93643,-0.77178,0.38496,-0.59511,-0.73588,-0.20642,-0.57045,0.28454,-0.82811,0.8548,-0.21117,-0.088129,0.30574,0.56591,0.20858,0.41182,0.35881,-0.044992,0.090866,0.32527,-0.82138,0.90944,-0.062092,0.44112
-0.81104,0.41471,-0.13194,0.7031,0.75031,0.88043,-0.38271,-0.4695,-0.4777,-0.6361,0.4729,0.086135,-0.92055,0.0095253,-0.99568,0.018705,-0.16761,-0.33851,-0.32632,0.81635,0.88301,-0.95016,-0.31622,0.59941,-0.30925,-0.7087,-0.81046,0.22618,-0.96713,0.90004
-0.33255,0.49717,-0.49254,-0.11227,-0.88184,0.69461,-0.47137,0.40932,0.85171,0.16163,-0.67985,-0.22761,0.75778,0.45649,-0.86001,0.31929,0.69235,0.44172,0.20244,0.21187,-0.2227,0.37094,0.85192,0.48947,0.052878,0.29032,0.00066934,-0.083385,-0.69789,0.51489
0.85435,0.54521,-0.30693,0.81185,0.99237,0.5179,-0.88456,-0.72025,-0.8601,-0.94583,-0.68887,0.018251,-0.59187,0.28006,0.38286,0.89043,0.88329,-0.29455,-0.60662,0.12377,-0.39614,0.14232,-0.62065,-0.47281,-0.83982,0.067856,0.26729,0.20382,-0.39521,0.29959
0.3156,0.58893,-0.20376,-0.75209,0.19495,-0.71872,-0.64095,0.74253,0.72986,-0.11009,0.12998,0.8307,-0.013091,-0.93242,0.62474,0.60884,-0.008853,0.87718,-0.59523,-0.87013,0.96126,-0.15269,0.51589,-0.66434,0.85383,-0.032832,0.49739,0.28031,-0.24033,0.9664
-0.24267,-0.44042,-0.020191,0.3335,0.81093,-0.63891,0.22911,0.5346,0.053557,-0.10641,-0.81096,-0.84247,-0.071112,0.5373,-0.022856,-0.41229,0.97249,-0.71733,0.43839,-0.10442,-0.55065,-0.2011,0.33275,-0.20021,0.3244,-0.21685,-0.55289,-0.22163,-0.11835,-0.12422
0.88354,-0.35979,0.78546,-0.20747,-0.1516,0.83267,0.91509,-0.44242,0.67405,0.91709,-0.84119,0.79391,0.19908,0.96272,-0.88748,0.085944,0.035909,0.36632,0.75541,-0.045483,-0.14603,-0.69359,-0.40916,-0.22806,0.96734,-0.13002,0.45271,0.74923,-0.15497,-0.34198
0.48845,0.86786,0.45212,-0.086227,-0.10675,0.69449,0.26637,0.61206,-0.57615,0.2085,-0.30212,0.11172,0.16375,0.98913,-0.11264,0.17911,-0.65901,0.57496,0.66412,-0.31702,0.20219,-0.14997,0.078326,0.9031,0.82391,0.34251,0.56762,-0.94648,-0.35717,0.24603
-0.59133,-0.64453,0.79945,0.7175,0.58878,-0.54919,0.19033,0.87186,-0.19241,-0.00072254,0.76707,-0.085836,0.028156,0.18736,-0.40706,0.55342,0.32118,0.40863,-0.98242,-0.60915,-0.78363,-0.38803,0.12414,0.0019309,0.78404,0.15445,0.50964,0.2836,-0.87571,-0.89927
-0.66283,-0.42204,-0.68584,0.79595,-0.71157,0.11484,0.52711,0.14634,-0.057029,-0.44439,0.80009,0.66162,0.50311,0.060537,-0.99915,0.099949,-0.81897,-0.078267,-0.3365,0.56878,0.02446,-0.031227,0.17091,0.60818,0.95011,0.64906,-0.33222,-0.54755,-0.67005,-0.14647
0.73726,0.011569,0.15923,-0.67094,0.32137,0.27215,0.58496,-0.0067443,0.0071225,0.75818,-0.96183,-0.3382,-0.802,0.59016,0.97704,0.77875,0.059904,-0.50255,-0.46912,0.14439,0.78453,-0.75579,-0.2911,-0.80119,-0.5871,0.91674,-0.89432,-0.95204,0.73355,-0.088197
0.45887,0.47423,0.25755,0.060767,0.52794,-0.70549,-0.47736,-0.12376,-0.34193,0.35528,-0.3524,-0.40069,-0.34645,0.24715,0.74931,-0.42686,-0.92166,-0.75922,0.46291,0.084391,0.54186,-0.73158,0.38468,0.089574,-0.86853,0.31401,0.8214,-0.95957,-0.80028,0.39474
-0.36268,0.31112,0.54436,-0.82412,0.1116,0.88283,-0.76993,0.34406,-0.47929,-0.85865,0.39096,0.35236,-0.43782,-0.32299,-0.71477,0.51455,0.97015,-0.58598,0.16459,-0.7812,0.38137,-0.26307,-0.76033,0.40374,0.59603,0.76781,0.87573,0.33836,0.51241,0.62444
-0.6821,0.28268,-0.41299,-0.74066,-0.19187,-0.45863,0.24426,0.67458,0.91404,0.2719,-0.7208,-0.50124,0.85328,-0.22129,0.70113,-0.19086,-0.68751,-0.61451,-0.51543,0.54119,0.87917,-0.39001,0.91418,0.9063,-0.58855,-0.8883,0.40238,0.56072,-0.096921,0.41833
0.81447,0.067199,0.91461,-0.90264,-0.29592,0.11483,0.77899,-0.46011,0.9352,0.64713,0.61423,-0.93231,0.13929,-0.91461,-0.11243,-0.53617,0.11004,0.27628,-0.8055,0.41179,-0.55278,-0.67739,-0.90355,0.11124,-0.39781,-0.77087,-0.88427,0.045229,0.81429,0.24184
-0.095242,-0.52642,0.021136,-0.22777,0.90787,0.73601,-0.8646,-0.4194,0.17433,0.44931,-0.15682,0.27634,-0.74374,0.062033,0.80975,0.43144,-0.86217,0.75095,-0.29199,-0.71727,-0.65742,-0.13564,0.71949,-0.71483,-0.63393,0.97033,-0.34327,-0.19882,0.58675,0.062235
-0.49438,0.82099,-0.54473,-0.89006,-0.22889,0.77212,-0.3904,-0.36696,0.19838,0.54684,-0.75218,0.55965,0.98482,0.2646,0.85479,0.93709,0.034089,0.16991,-0.61717,-0.53044,-0.66529,0.29964,0.40304,-0.49972,-0.24412,-0.11918,-0.039689,-0.63068,0.31438,-0.61639
-0.070966,-0.50293,-0.14245,0.36118,-0.96397,0.17311,0.22906,0.55851,0.23831,0.67273,0.68794,0.28707,0.79483,-0.8615,-0.060931,-0.86283,-0.2282,0.4335,0.57272,-0.46247,-0.96985,0.79611,-0.65597,-0.7636,0.30252,-0.47859,-0.2999,-0.032038,0.32546,-0.27641
0.57355,0.91584,0.16743,-0.099008,0.027034,0.5392,-0.34792,0.46377,0.79102,-0.2733,-0.5715,0.62651,-0.68974,0.44555,0.42671,0.80804,-0.038845,-0.72826,0.84841,0.4447,-0.26299,-0.66205,-0.42963,-0.28984,0.41857,-0.45684,-0.57925,-0.71324,-0.8574,0.40047
0.034297,-0.85081,-0.82705,-0.71683,0.0071614,0.37628,-0.15556,0.47287,0.48505,-0.51212,-0.88683,-0.8172,0.98283,-0.23731,-0.80392,0.41493,0.18415,0.89139,0.96249,0.065608,0.51632,0.42558,0.56574,-0.10243,-0.46328,-0.20942,0.75077,0.44579,0.99471,-0.56157
-0.10222,-0.28979,0.59728,0.33158,-0.41838,-0.13051,0.2308,-0.82871,0.75308,0.75319,-0.72183,-0.81667,0.74777,0.96627,0.028825,0.51659,0.20522,0.17456,0.23434,0.61735,-0.97949,0.51789,-0.73574,0.27385,-0.25482,-0.11287,-0.32651,0.17927,0.57635,0.36203
0.83178,0.07197,0.94409,0.5045,-0.37076,0.48225,-0.09745,0.81105,-0.12172,-0.54737,-0.069373,0.96904,-0.44337,0.13887,0.38967,-0.65615,0.10727,-0.92578,-0.23515,0.43223,-0.5771,-0.70707,-0.53382,0.2835,-0.87412,-0.95563,0.58685,-0.58606,0.52904,-0.12646
0.17116,0.96279,0.74529,0.18142,0.7597,-0.71708,-0.66314,0.94662,-0.94583,0.031274,-0.8336,0.47338,0.44377,-0.77689,0.68797,-0.4921,-0.49397,0.038601,0.70472,-0.66201,0.52883,-0.22672,0.30844,-0.10233,0.95523,0.43373,-0.24693,-0.044567,-0.90096,0.31245
0.44504,0.094399,-0.60576,-0.07777,0.39202,0.33424,0.030636,0.54995,0.32412,-0.77166,0.38063,-0.43501,-0.12019,0.077049,0.63137,-0.10392,0.94936,-0.59174,-0.098,-0.59642,0.80505,0.27697,0.3048,-0.22381,-0.074646,-0.40003,-0.24656,0.2028,0.14344,0.010036
-0.44853,0.53246,-0.90176,-0.69757,-0.35141,0.21367,0.031863,0.49136,0.11396,-0.091324,0.66003,0.19696,-0.18227,-0.31053,-0.71398,0.69914,-0.78822,-0.20851,0.12163,-0.56043,-0.64297,-0.038432,-0.13424,-0.04756,-0.029701,0.37559,-0.35337,-0.37041,0.7726,0.34762
0.23442,0.12354,0.33345,-0.25489,-0.21904,-0.47921,0.84915,-0.06122,-0.78524,-0.88923,-0.33592,0.3443,0.1457,-0.33272,0.51668,0.64315,0.56114,-0.6418,-0.74784,0.30758,-0.61926,-0.65665,-0.90895,0.78744,0.72075,0.54172,-0.87086,-0.63556,-0.69137,-0.89994
0.40729,-0.43478,-0.056501,0.88146,-0.73292,0.45968,-0.91137,-0.27495,-0.75206,-0.76572,0.65356,0.10949,0.6044,-0.5155,0.44429,0.30369,0.26883,0.33772,-0.56176,-0.43603,0.36334,0.31012,-0.93482,0.52591,-0.12823,0.13344,-0.34971,0.98682,0.064984,0.35007
-0.47783,-0.38977,0.43609,-0.29351,-0.80701,-0.26211,-0.64499,0.68578,-0.42298,0.61591,-0.34565,-0.61662,-0.73872,0.082564,0.65859,0.87239,-0.67574,-0.85897,0.2251,-0.64022,0.3331,-0.9464,0.97022,0.090949,0.51477,0.96887,-0.7405,-0.34371,-0.97659,0.87052
-0.37263,-0.14235,-0.89417,0.605,-0.09939,0.19519,0.91783,-0.3111,-0.17983,0.040574,-0.26062,0.29984,0.50596,0.31233,-0.51909,-0.51572,0.96372,0.92448,-0.2304,-0.75586,0.14896,0.52338,0.63969,-0.61183,0.2253,-0.26863,-0.91038,-0.60969,-0.91208,-0.8114
-0.1459,-0.13066,0.47953,0.16207,-0.67715,-0.0024891,0.33217,0.60502,0.66669,-0.89578,0.010144,-0.14842,-0.54692,0.26389,-0.013624,-0.17018,0.5627,0.59671,0.63257,0.17161,-0.02998,-0.48423,0.93601,-0.064742,-0.69797,-0.81561,0.10084,-0.83708,-0.57299,-0.17431
-0.23572,0.5443,-0.9709,0.10132,-0.19924,-0.4645,-0.13016,-0.48323,0.61679,-0.67657,0.5402,0.4032,-0.71963,-0.3099,-0.94262,0.50303,-0.027095,-0.61734,-0.048751,0.92886,-0.7514,-0.24782,-0.062402,-0.64702,-0.95069,0.7158,-0.10835,-0.75999,-0.21806,-0.014715
-0.45048,0.14448,0.20036,0.73394,0.068786,0.80157,-0.83785,0.30083,-0.12761,-0.94823,0.3316,-0.8698,-0.087774,-0.51799,0.65189,-0.43718,-0.38876,-0.71159,-0.63797,0.12313,-0.43892,-0.24435,-0.77153,-0.35759,0.14355,-0.87688,-0.69598,-0.88399,0.91218,0.26655
0.1899,0.16952,-0.46081,0.51424,-0.75654,0.74107,0.91043,-0.16153,0.016668,0.27365,0.39324,0.24321,-0.1246,0.13372,0.60764,0.28374,-0.86618,-0.65756,-0.40098,-0.41169,-0.73183,-0.53516,0.46196,-0.76084,0.85376,0.7717,-0.62712,0.29935,0.43047,0.1987
0.41792,0.89448,0.24032,0.23841,0.83216,0.52995,-0.26996,0.029161,0.94691,0.19401,-0.061759,0.84215,0.48971,0.74302,-0.74756,-0.5546,0.11078,0.13561,0.058041,-0.80909,-0.75183,-0.13729,0.025079,-0.032649,0.6039,0.1263,-0.44475,0.25266,0.08559,-0.82353
-0.3676,0.72153,-0.84132,-0.92308,0.19604,0.7917,-0.6557,0.84204,0.27575,-0.041465,0.77396,-0.030867,-0.60844,0.23216,0.8624,-0.50825,-0.93644,-0.024712,0.9174,-0.064722,-0.42252,-0.30628,-0.84086,0.38497,-0.58891,0.29712,-0.35881,-0.70176,-0.78736,-0.46819
0.2141,-0.72977,0.38486,-0.1887,0.30073,0.92066,-0.70241,0.53597,-0.044579,-0.52403,0.55533,0.91378,-0.32533,0.9525,0.98417,-0.33786,-0.16291,0.5124,0.35056,-0.50273,0.12919,-0.13254,-0.64215,0.66815,0.89909,-0.19092,0.77513,0.621,-0.49032,0.29698
-0.14919,0.63212,0.67708,-0.55706,0.99012,-0.45325,-0.96571,-0.29769,0.65263,0.56534,0.98996,0.088375,0.047595,-0.77487,0.7652,-0.56331,-0.49206,0.66982,0.31864,-0.47131,-0.73257,0.32891,-0.18185,-0.82845,0.57925,-0.019826,0.38548,0.87775,-0.43568,-0.45706
0.39712,-0.45505,0.45107,-0.06007,-0.24308,0.4974,0.35929,0.69512,0.18175,0.60385,0.67848,0.92505,0.067647,-0.65126,-0.56044,-0.84439,-0.93908,0.060021,0.037839,0.090507,-0.92073,-0.34055,0.37022,-0.56751,0.84091,-0.37891,-0.77598,-0.76975,-0.27708,-0.24618
0.87916,0.039052,0.93638,0.54359,-0.99076,0.26704,0.20139,0.86083,0.94481,0.2324,0.33995,0.09024,0.60853,-0.68837,0.75417,0.97105,0.00084639,0.76857,0.28225,-0.081532,0.89595,-0.72665,0.24348,0.32121,0.81793,-0.010399,-0.78271,-0.97099,0.63299,0.1988
-0.51435,-0.37564,0.1204,0.82731,-0.42172,-0.10085,-0.67876,0.34142,-0.34685,-0.17429,-0.37363,-0.3675,-0.86978,0.99332,0.99011,0.75342,0.5585,0.70766,0.95871,0.36828,0.64738,-0.11724,0.91208,0.6048,0.54288,-0.77554,-0.42059,-0.91092,0.046809,-0.68391
-0.29588,0.35998,-0.29718,-0.17271,0.56104,-0.39593,0.40315,-0.094466,-0.022732,-0.49209,0.71149,0.60997,0.01923,-0.78883,-0.6553,0.94026,-0.10842,-0.67844,-0.12456,0.93507,-0.89257,-0.40313,-0.76198,-0.33926,-0.12819,0.0080292,0.89633,-0.75268,-0.29297,-0.11684
-0.25721,0.89429,-0.50196,0.76729,0.083529,-0.21539,-0.95078,0.22002,0.42904,0.6595,-0.75179,0.75443,0.41588,-0.24819,0.65133,0.52663,0.53772,-0.14636,0.5632,0.88482,0.92228,0.11535,-0.12045,0.53144,0.92803,0.60289,0.16084,0.48125,-0.32194,-0.61629
0.60521,0.55003,-0.29615,0.65925,0.89271,-0.52822,-0.79843,0.3319,0.17244,0.78393,0.34169,-0.67394,-0.16882,-0.48922,-0.39637,0.39635,0.38633,0.36173,0.074804,0.78721,0.94834,0.71764,0.77951,0.14851,0.28702,0.22118,0.31607,0.56427,-0.5273,-0.071113
0.23743,0.11264,-0.29815,-0.37433,0.27505,-0.086367,0.99343,-0.54594,0.84688,-0.57573,-0.48253,0.84877,0.84522,-0.097205,0.85227,-0.84722,0.16395,-0.63864,-0.05375,0.41853,-0.70296,-0.39216,-0.77408,0.83765,-0.65036,-0.20052,0.51647,0.38575,0.91452,0.63616
-0.54913,-0.62009,-0.8,-0.39156,-0.65844,-0.91521,0.64956,-0.3786,0.6942,0.55724,-0.17969,0.28058,-0.80253,0.63809,-0.44958,-0.61412,0.70192,-0.16157,-0.84764,0.8088,-0.77549,0.2326,0.0025636,0.86067,0.62845,-0.61762,0.77364,-0.92008,0.85074,-0.32481
0.50131,0.65997,-0.65862,-0.55142,-0.23285,0.62084,-0.76578,0.46881,0.34216,-0.39692,0.21682,0.044319,0.22105,0.047395,0.55675,0.49111,0.83924,0.7205,-0.3621,0.35299,0.67944,0.80779,0.14404,-0.472,0.23402,-0.82939,-0.22482,0.77283,0.29133,-0.2466
0.49893,0.0013216,0.80314,-0.70587,0.72181,0.027009,0.4094,0.65851,0.48143,-0.52543,0.31706,0.85588,0.59695,-0.84341,-0.9492,-0.25021,0.64409,0.41047,0.39977,-0.19341,-0.0085093,0.73852,0.69333,0.83244,0.022628,-0.20173,-0.90151,-0.89972,-0.90462,-0.18749
0.02111,0.92888,0.07385,0.54909,0.65472,0.95436,-0.10928,0.40497,-0.22111,0.56293,0.72672,-0.5301,-0.59773,-0.36127,-0.55007,0.42513,-0.063379,0.98491,0.91723,-0.37695,-0.29173,-0.10922,0.95369,0.32286,-0.72242,0.53053,-0.44054,0.5791,-0.91532,0.98104
0.16189,-0.73468,0.55646,-0.57831,0.84037,0.10285,0.82312,-0.66876,-0.41837,-0.30633,0.099838,0.30098,-0.31473,0.93939,0.6351,-0.56353,0.49859,0.13513,0.63859,0.0026859,0.32188,0.99745,-0.37685,0.62017,-0.43375,-0.494,-0.10469,0.21106,-0.95296,-0.27458
-0.33033,0.33886,-0.69855,0.15035,0.57999,-0.078381,0.2291,0.84776,0.42776,-0.45885,0.92002,0.62909,-0.54585,-0.51604,-0.39164,-0.80832,-0.30901,0.042784,0.51498,0.56436,-0.56074,0.83821,-0.25528,0.049559,0.61828,0.5317,0.30795,-0.48493,0.99487,-0.7627
-0.67318,-0.84178,0.66719,-0.41982,-0.14578,0.37001,-0.33348,0.34666,-0.73809,-0.27683,0.74309,-0.18615,0.55355,0.027678,-0.055236,-0.099347,0.81634,-0.12598,-0.073101,-0.4958,-0.41828,-0.035383,0.7423,-0.43527,0.34347,0.059795,-0.25504,0.82523,0.49052,0.96243
-0.12148,-0.73492,-0.80902,-0.3023,-0.037255,-0.26626,0.66886,-0.18546,-0.4474,-0.28042,0.73723,0.18013,-0.573,0.74868,-0.51893,-0.84356,0.64748,-0.38235,0.085882,-0.86526,-0.99755,0.064135,-0.21803,-0.3602,0.043626,0.72859,0.51146,0.37511,0.73193,0.87238
0.91975,-0.39975,-0.61126,-0.72377,0.67705,-0.30248,0.0030608,0.17922,-0.6963,0.156,0.22612,0.99733,0.22504,-0.19124,-0.65111,0.74586,0.97048,0.85659,0.87991,0.67279,-0.97668,-0.27937,0.61078,0.27723,0.47929,-0.41213,-0.99874,0.32587,0.35155,-0.16373
0.80676,-0.95981,0.1702,-0.71578,-0.64857,-0.16495,-0.74018,-0.20658,-0.71828,0.28791,0.44219,-0.91997,0.97046,-0.30576,0.80951,0.93922,-0.44144,-0.99558,0.16944,0.95454,0.81278,0.74282,0.37881,-0.41687,-0.4691,-0.463,0.99891,-0.89335,-0.77331,0.96965
-0.90731,-0.77204,-0.69799,0.76663,-0.79976,0.14706,-0.87827,-0.92786,0.82222,0.58036,0.57764,-0.4705,-0.44846,-0.64006,0.63695,-0.54275,-0.024488,0.3958,-0.36174,0.14837,0.8754,0.82382,0.91311,0.31876,-0.99974,0.30974,-0.89294,-0.049983,-0.05629,-0.54703
-0.073894,0.79945,-0.72023,-0.81139,-0.64148,0.61425,-0.10236,-0.33622,-0.57332,-0.23088,-0.80502,-0.69426,0.57033,0.83913,0.91071,0.65346,-0.57381,0.48238,0.84732,-0.42627,-0.47464,0.20197,-0.84852,-0.44181,-0.90436,0.46748,-0.23313,0.49516,-0.95957,-0.018331
0.17324,0.31059,-0.64676,-0.051464,-0.32395,0.51827,0.3105,0.53132,0.14677,-0.078474,-0.066687,0.23444,0.45268,0.87851,-0.5505,0.92787,-0.35722,0.30936,0.71804,-0.14981,0.0054082,0.55418,0.15442,-0.55037,0.47273,-0.9142,0.51054,-0.16976,0.52252,-0.47965
0.8241,0.27721,0.62114,-0.40356,0.74892,-0.99032,-0.45399,0.11406,-0.61461,0.95083,0.037448,0.1673,0.10548,0.87073,-0.758,0.57178,-0.69761,-0.48499,0.1144,-0.022546,-0.78087,-0.74331,-0.26988,0.55731,-0.63829,0.53792,-0.44964,0.39121,-0.63109,-0.41152
0.55442,0.47808,0.067382,-0.48796,0.63374,-0.04548,0.0075521,-0.71621,-0.6427,-0.7544,-0.48165,-0.25668,-0.98173,-0.46636,0.59822,0.8097,0.042063,-0.22195,0.55362,0.58503,0.32458,0.37297,-0.58169,0.12454,-0.074489,-0.46587,0.13205,0.5205,-0.4489,-0.98412
-0.65247,-0.21388,-0.65225,-0.098996,-0.39178,-0.061527,0.41785,-0.32319,0.906,-0.5568,0.15204,-0.41916,0.074247,-0.82705,-0.72436,0.76943,0.45426,0.79563,-0.16021,0.69319,-0.63843,0.13714,0.14365,0.48872,-0.14552,-0.17284,-0.010892,0.52907,0.23474,0.2371
-0.64286,0.70005,0.38523,-0.30953,-0.96105,0.80809,0.06287,0.5656,0.89201,-0.49883,0.17693,0.038746,0.20919,0.78352,0.75528,-0.39197,0.7729,-0.34821,-0.56888,0.72573,0.59156,-0.67791,-0.8436,-0.71579,-0.015457,0.467,-0.2457,0.10786,-0.45888,0.73592
0.92053,-0.055316,-0.66886,0.96966,0.56299,-0.4169,0.05827,-0.96616,-0.29705,-0.1833,-0.30963,0.79727,0.53051,0.25171,-0.79656,-0.041652,-0.14076,-0.15998,0.80577,0.77272,0.81428,0.59868,0.4915,0.38034,-0.65556,0.92104,0.30737,-0.18839,0.6031,-0.78716
0.40788,-0.8423,0.57758,-0.63703,0.54501,0.12295,-0.58683,0.50633,0.54732,0.45192,0.049412,-0.55282,0.2553,-0.81585,0.27173,-0.5895,0.94447,-0.26868,0.0034731,-0.37594,0.54147,0.032512,0.80239,-0.53569,0.40205,0.50509,-0.15927,-0.40001,-0.067442,-0.63893
0.59806,0.90987,0.82267,0.96573,0.84399,0.95233,-0.66107,-0.22912,-0.1509,-0.16442,0.90179,-0.70864,0.79116,-0.075701,0.99884,-0.6847,-0.83403,0.69451,-0.074631,-0.83813,0.8456,0.10559,0.62798,-0.67721,0.13505,-0.07024,0.039268,-0.1628,0.079394,-0.52733
-0.68889,-0.65244,-0.61854,0.66101,-0.83025,0.81188,0.62366,0.69569,-0.11366,0.19771,-0.64349,0.83469,0.54097,0.4653,0.51047,-0.18977,-0.74547,0.5424,0.62801,-0.77685,0.045371,0.20982,0.44244,0.61478,-0.46525,-0.72916,0.52476,0.65638,-0.59355,0.37912
-0.27111,0.30981,-0.39997,0.3213,-0.73294,0.39658,-0.67562,0.86595,0.83101,-0.3806,0.67154,-0.90148,-0.4067,-0.13523,-0.34413,0.16581,0.14275,-0.45361,-0.48945,0.93132,-0.62233,0.023811,-0.8836,-0.04448,0.26562,-0.37765,-0.94302,-0.088305,0.73847,0.42202
-0.05405,0.61503,0.016821,0.049441,0.34606,0.029052,0.89395,-0.97398,0.71097,-0.53073,-0.24577,0.19933,-0.020903,-0.84353,-0.5192,-0.24771,-0.95285,-0.6638,0.84387,0.16687,0.51471,0.64265,-0.64051,0.12657,-0.87931,0.018772,-0.079626,0.74398,0.8413,0.55341
0.12406,0.48369,-0.83259,-0.56605,0.045603,0.36414,0.91042,0.7339,-0.82414,-0.060964,0.66197,-0.62196,-0.60202,-0.54314,0.76365,-0.9145,-0.68771,-0.037861,0.16493,-0.076922,0.94486,0.96277,0.84069,0.44233,-0.90453,0.59147,0.39068,-0.1688,0.15426,-0.82787
0.83311,-0.66768,0.55862,0.085648,0.79491,-0.069024,0.38248,0.24826,0.48354,-0.94021,0.46563,-0.1332,-0.67066,0.19887,0.096088,0.50769,-0.70918,-0.86731,-0.79048,0.40535,0.30368,-0.66622,0.83169,0.95445,0.21054,-0.97847,0.5011,0.12244,-0.40607,0.11166
0.71338,0.10051,0.001175,-0.064323,0.32225,-0.61546,0.69448,0.088057,0.21873,-0.77956,-0.37416,-0.4297,-0.14394,-0.19278,0.68841,0.47109,0.43456,0.93264,0.69627,-0.60149,0.62833,-0.65593,0.72534,-0.53314,-0.96462,-0.39962,0.77159,-0.56732,-0.94612,0.041878
0.053094,0.43979,0.6068,0.45048,-0.4455,0.14299,-0.21538,0.82692,0.98382,-0.092078,0.432,0.76742,-0.72906,0.92534,-0.45113,0.1753,-0.20838,0.38796,0.70922,0.34431,-0.61896,0.43773,-0.17817,0.17314,-0.50536,0.096107,-0.12114,-0.087178,0.94985,0.4367
-0.59358,-0.067921,-0.13817,-0.072778,0.15222,0.14002,0.98745,0.56381,0.017293,-0.84256,-0.40746,0.18248,-0.97093,-0.68232,0.60971,-0.15159,-0.14046,-0.071737,0.95737,0.32576,0.93035,0.66125,0.26591,-0.57042,-0.057236,0.15761,0.48769,0.23847,-0.86844,-0.41797
-0.36551,-0.82954,0.17156,0.98704,-0.54882,-0.25002,0.15129,0.47776,0.62558,0.12425,0.56798,-0.64024,0.37788,-0.64053,-0.56764,-0.87533,0.77171,-0.019321,0.73637,-0.17568,0.31413,0.030894,0.29105,-0.59316,-0.45437,0.10065,0.073979,-0.32329,0.14156,-0.39621
0.017514,-0.028961,-0.14456,-0.96785,0.23661,-0.77127,0.84194,0.84171,-0.42962,0.73412,-0.64793,-0.50644,-0.95269,0.84549,0.73805,0.00848,0.57202,-0.79833,-0.49652,-0.76971,-0.19041,-0.26627,-0.66168,0.26236,-0.030572,-0.85345,0.56861,0.60579,-0.68438,-0.919
0.65072,-0.34864,0.82273,0.56785,-0.00229,0.92081,0.061963,0.38618,-0.74695,-0.66819,0.93385,-0.11822,0.64262,0.21678,-0.45143,0.31277,-0.42688,-0.1987,-0.28397,0.005663,-0.19584,0.28988,-0.14378,-0.82919,0.34896,-0.13459,-0.14654,0.13117,0.69797,-0.4169
-0.031367,0.93445,0.98336,0.51968,0.13412,0.68654,-0.37564,0.42802,-0.014352,0.018977,-0.4135,-0.74971,0.48767,0.80665,-0.12744,-0.031404,0.27477,-0.30251,-0.45387,0.040644,0.60308,0.45727,-0.0067219,-0.47313,-0.25182,0.64547,-0.42001,-0.72128,0.024598,-0.42839
0.30437,0.20396,-0.68095,-0.0016225,0.82332,0.49311,0.16589,0.55014,0.14675,0.90863,0.74872,-0.24381,-0.67301,-0.28906,0.79903,0.51204,-0.48441,-0.08569,0.11294,0.48051,-0.44805,-0.49741,-0.51995,-0.27344,-0.51686,-0.39326,0.71016,-0.94549,0.55693,0.76318
0.22095,0.11587,0.84744,-0.99167,-0.61992,-0.60015,0.30396,-0.30778,-0.54995,-0.40699,0.97161,0.44651,-0.63891,-0.32749,-0.3965,-0.81363,-0.75423,0.82155,0.55107,0.8681,0.60651,-0.61782,0.79807,-0.7688,-0.13182,-0.83938,-0.92169,-0.23372,0.0246,0.76208
-0.98043,0.63514,0.31616,0.22964,0.60955,0.69066,0.67336,0.16788,-0.22331,0.34464,-0.45766,-0.09886,-0.47683,-0.26276,0.062148,-0.82178,0.93351,-0.34475,0.41881,-0.44507,0.32011,-0.61647,-0.6475,-0.35502,0.44797,0.79698,-0.98955,0.50077,0.14559,0.40314
0.17717,-0.086752,-0.65518,-0.93721,-0.35252,-0.95158,0.33389,0.82473,-0.41562,-0.24913,0.84532,-0.94608,0.40944,0.72304,0.907,-0.53138,0.89847,0.70998,0.81996,0.6469,0.95958,-0.068419,0.2982,-0.31123,0.88219,-0.16173,0.94571,0.31464,-0.13925,0.81266
0.59704,0.89828,0.81467,0.25981,0.022677,0.11689,-0.12561,-0.72529,-0.48462,0.96535,0.21643,0.92819,0.74472,0.49464,0.18256,0.46047,-0.5458,0.85926,-0.82964,-0.90215,-0.87577,0.4222,-0.1595,0.83085,-0.15013,0.32452,-0.60383,-0.70192,0.42988,-0.048868
0.28367,0.66559,0.51681,0.87131,0.65161,0.55906,-0.049275,0.31965,-0.025152,0.88361,0.16768,0.48976,-0.72981,-0.34155,-0.9621,0.05885,-0.11466,-0.082873,-0.83909,0.68694,0.12699,0.495,0.96129,-0.85295,-0.91149,-0.40517,-0.051272,-0.64757,-0.92811,-0.24689
0.12908,0.45173,-0.88392,0.91342,-0.39095,0.98266,0.46355,0.31363,-0.19749,0.044645,-0.29135,-0.23392,-0.32439,0.97871,-0.60945,-0.99486,-0.46909,-0.093394,-0.1388,0.53841,-0.76799,0.66114,0.56303,0.68769,-0.99954,0.052017,-0.88872,-0.29556,-0.50311,0.83523
0.39834,0.56305,0.88498,-0.98792,0.88284,-0.92165,0.32112,0.027654,-0.67229,-0.31168,-0.49966,-0.97785,0.67689,0.6961,0.21436,0.12294,-0.017665,0.41045,-0.4895,0.60537,0.40462,0.87167,0.35655,0.66779,0.89651,0.75162,0.28955,-0.55192,-0.54124,-0.45723
0.26006,0.4993,-0.11035,-0.76222,0.15601,-0.33601,0.52531,0.14313,0.2494,-0.50053,0.80828,0.90637,0.70509,0.61878,0.21725,0.14591,0.64531,0.84817,-0.37953,-0.70539,-0.86372,-0.53347,-0.51359,-0.31875,0.43332,-0.0074857,-0.83943,-0.11688,0.79961,-0.63051
0.7666,-0.22405,0.87208,0.1497,0.75865,-0.10792,-0.91882,0.89745,-0.19974,-0.39876,0.7826,0.54469,-0.55456,0.3831,-0.41148,0.062057,0.66834,-0.5,0.79976,-0.56863,0.24449,-0.50223,0.50647,-0.84616,-0.36552,-0.94427,-0.071613,0.29127,0.91563,-0.23004
-0.43429,0.47627,0.41602,0.040682,-0.05984,-0.22784,0.44303,0.95721,0.12557,-0.6006,-0.1248,0.27778,-0.27321,-0.31659,0.34097,0.17752,0.16276,-0.26819,-0.80726,-0.33387,0.74346,-0.061164,0.65658,-0.3527,-0.1555,0.50918,0.68794,-0.19531,-0.49099,-0.073122
0.50171,-0.25709,-0.90548,0.33065,0.95495,0.29377,0.17179,0.11389,0.83424,-0.98303,-0.78479,-0.44522,-0.045934,-0.58645,-0.23607,-0.73812,-0.051751,-0.10704,0.037253,-0.99434,-0.66749,0.46482,0.78184,0.71581,0.51657,0.28172,-0.752,0.97466,-0.94911,0.15
0.69515,-0.14555,0.64795,-0.54346,-0.45677,-0.88288,0.41185,0.073161,-0.24011,-0.31925,-0.89625,0.63135,0.71004,-0.99726,0.20051,-0.99198,0.52225,-0.087227,0.73499,-0.37711,0.40645,-0.40398,-0.80761,-0.43417,-0.68939,-0.52045,0.69487,0.41658,0.99006,0.89202
-0.72494,0.71553,-0.65572,-0.90638,-0.27019,-0.059139,-0.96112,0.68562,0.41632,0.073372,0.59774,-0.71288,0.93194,-0.80301,0.037756,0.56169,-0.58334,0.044754,0.10766,0.18453,-0.85542,-0.54159,0.1941,-0.8907,0.91894,0.22618,0.12002,-0.96186,0.98605,-0.79357
0.045834,0.37957,0.51243,-0.18649,0.22006,-0.11028,-0.68137,0.096679,-0.83187,0.14197,0.41813,-0.80929,-0.83595,0.45979,-0.81025,-0.97962,-0.85223,-0.066938,-0.83611,0.48955,0.1155,-0.1645,-0.59199,0.3099,0.44681,0.28937,0.831,0.82085,0.86441,0.05778
0.43538,0.80887,-0.15508,0.58741,-0.16406,0.074475,-0.73343,-0.71078,0.45224,0.4065,-0.13468,0.8401,0.50971,-0.74306,0.66768,-0.71074,0.71868,-0.67304,-0.58936,0.34344,-0.32158,-0.5857,0.048407,-0.032066,-0.27435,-0.29601,-0.97148,-0.9777,0.85265,-0.82015
0.70175,0.59659,-0.0899,-0.82827,0.1888,0.3019,0.98164,-0.11265,0.79071,0.036694,0.042551,0.17857,0.8176,0.39407,-0.85883,0.90486,0.54965,-0.89665,0.50213,0.26933,-0.8674,0.58714,0.70833,0.01944,-0.73957,0.31835,0.90288,0.54258,0.78042,3.6556e-05
0.95324,0.93106,0.068446,-0.11029,0.76289,0.86098,0.37103,-0.97559,-0.87486,0.43219,0.24003,-0.44574,0.67485,0.089653,-0.44848,0.25005,-0.85468,0.99356,0.20447,0.61549,-0.88164,-0.72508,-0.79162,0.58287,-0.7221,-0.47423,0.34095,-0.63614,0.21791,0.53863
-0.075621,-0.28628,0.44652,0.85288,-0.29641,0.39716,-0.17975,0.61968,-0.91203,-0.59693,-0.48007,-0.26175,0.022626,0.8142,0.18713,-0.94438,-0.50832,0.18781,0.94966,-0.94017,0.55956,-0.44502,0.43753,0.046359,0.071895,0.047999,-0.85806,0.38946,0.7407,0.069912
0.084719,0.98415,0.39772,-0.54782,0.22321,-0.80969,-0.18147,0.43505,-0.44107,0.87684,-0.7302,0.52346,-0.13423,-0.69868,-0.25486,-0.89045,-0.31807,0.25326,-0.80589,0.080425,-0.19576,0.82845,0.87453,-0.2757,-0.12711,-0.68546,0.59276,-0.52353,-0.10044,-0.12411
-0.95139,-0.072688,0.72294,0.79795,-0.70175,-0.80306,0.25887,0.034185,-0.17387,0.47814,0.31349,0.8644,0.81963,-0.0084067,-0.93653,0.021093,0.83275,0.64757,-0.29368,0.14635,0.59815,0.047002,-0.036294,-0.77847,-0.79087,-0.18237,-0.29478,0.72973,0.18645,0.29394
0.63462,0.61988,-0.12887,-0.71553,0.082408,0.052438,0.076546,-0.89056,-0.49879,-0.10276,0.85439,-0.28624,0.4694,0.40047,-0.92013,0.19694,-0.66439,0.010388,-0.037631,0.78277,0.1902,0.66841,0.047337,0.97671,0.93841,-0.17744,-0.94504,-0.3543,-0.45475,0.83246
-0.69794,-0.6895,0.31443,-0.75572,0.15522,-0.55879,0.12379,0.13146,0.43478,0.12822,-0.90782,0.65337,0.12764,-0.93327,0.72787,-0.43696,0.32927,0.4279,0.18953,-0.56859,0.93567,0.4884,0.48015,-0.20891,-0.93366,0.6199,-0.88543,0.32493,0.29948,0.76755
-0.1716,0.70045,-0.84032,0.86903,0.69186,-0.64955,0.91417,-0.55161,-0.8102,0.77257,0.86755,-0.60069,-0.30456,0.54944,-0.49982,-0.36434,-0.098227,-0.20567,0.18639,0.63029,-0.8834,-0.4167,-0.18629,0.13614,0.0052147,-0.5402,0.041894,0.93702,0.86535,0.26519
0.19865,0.32858,0.7949,0.48566,0.81341,-0.78161,0.43307,-0.62682,-0.2747,-0.47276,-0.28707,-0.088438,0.43066,-0.36708,-0.063722,0.56558,-0.60183,-0.025092,0.85488,-0.20151,-0.96762,0.20089,-0.89633,-0.78646,0.6802,-0.1759,0.32229,-0.11859,-0.94129,-0.95112
0.87005,-0.81082,0.43132,-0.57784,-0.24321,-0.37157,-0.36503,0.5651,-0.16969,-0.56369,-0.85773,-0.48764,-0.0027186,-0.75982,-0.33977,0.52403,-0.4927,-0.75305,-0.71974,0.50061,-0.12977,-0.87437,0.27833,0.93401,0.82253,0.48898,0.40397,0.5486,-0.67423,0.48345
0.74113,-0.39117,0.79218,-0.29169,-0.88351,-0.58303,-0.6781,-0.66873,0.49878,-0.25452,0.87783,0.15968,-0.51557,0.78132,0.39704,0.2631,-0.42032,-0.48628,-0.86897,0.67377,-0.96348,-0.12716,0.3078,-0.046075,-0.33214,-0.90498,-0.57891,0.98674,0.98067,0.27465
-0.23835,-0.10073,0.06842,0.080267,0.58769,0.57029,0.62568,0.16087,-0.17871,0.78531,-0.84269,-0.3624,-0.92861,-0.67982,-0.48839,0.20837,0.27227,-0.3515,-0.84439,0.74492,0.27101,-0.66147,-0.55922,-0.023193,-0.15127,-0.13395,-0.77916,0.53762,0.41904,-0.72166
0.22023,0.069284,0.73329,0.7905,0.28704,-0.82091,-0.31341,0.35196,0.20431,-0.58365,-0.56608,0.030466,0.86927,-0.65501,-0.58175,-0.010389,0.019921,-0.43701,-0.3766,-0.31306,0.83211,-0.76938,-0.69656,0.39177,0.97899,0.32292,-0.15211,0.70891,-0.22892,-0.31408
0.42444,-0.63358,-0.84609,-0.52712,0.78539,0.067319,-0.60278,0.95943,-0.59808,0.53575,-0.48323,0.10531,0.38353,-0.66827,0.51683,-0.37118,0.54292,-0.71181,-0.72943,-0.44756,0.93346,0.83542,0.6898,-0.44151,-0.14941,-0.9967,-0.59572,-0.32456,0.88012,0.27074
0.77296,-0.99998,-0.81212,-0.091272,0.75048,-0.98339,-0.88607,0.62973,-0.68927,-0.077728,0.49348,-0.48892,0.95264,0.20718,-0.43829,0.52107,0.53362,0.70198,0.69813,0.70632,-0.87996,0.51604,0.0054351,-0.21361,0.12008,0.11114,-0.64311,0.70688,0.47154,0.66864
0.23744,-0.23817,-0.85084,-0.50984,0.83269,0.67848,0.3123,-0.52827,-0.60955,-0.51956,-0.39793,0.3702,0.99796,-0.32308,-0.071017,0.57169,0.89008,-0.72371,-0.69045,0.86446,-0.32859,-0.021749,0.55875,-0.038971,0.81952,0.82704,-0.47226,0.38357,-0.13646,0.94085
-0.11079,-0.064274,0.4254,0.68174,-0.30865,-0.60265,-0.030731,0.66767,-0.17459,-0.54847,-0.71755,-0.97496,-0.24496,-0.053917,-0.072266,-0.57566,0.43572,-0.30772,0.64603,-0.368,0.58848,0.59387,-0.10986,0.52956,-0.55002,0.49926,-0.50385,0.085964,0.60957,0.94381
-0.0053733,0.33355,0.76416,-0.43168,-0.70844,-0.99799,0.25542,-0.16771,0.95809,0.91962,0.21525,0.93581,-0.30866,-0.71534,-0.31406,0.81082,-0.38887,0.049137,0.66983,-0.40385,-0.30427,0.95108,0.36026,-0.93123,0.53553,-0.63885,-0.38319,0.96719,-0.21003,0.65682
0.047461,-0.83694,-0.86262,0.17908,0.40463,-0.014934,0.18663,-0.37537,0.2202,-0.88772,0.95605,0.53286,0.054195,-0.46539,-0.50813,-0.34861,0.006708,0.46893,0.028143,-0.88569,-0.98542,-0.20304,0.62,0.21261,0.73803,-0.25465,0.58898,0.3508,-0.47057,-0.88392
0.94993,0.074917,0.86869,0.12248,0.83507,0.70541,-0.034381,-0.23671,0.3334,0.32717,0.74144,-0.62385,-0.83471,-0.44702,-0.9673,0.030714,0.88708,0.66568,0.88202,-0.18222,-0.27508,-0.050925,-0.07225,0.45167,-0.39977,0.46977,0.20547,-0.44837,-0.43327,0.5651
0.96393,-0.10309,0.13014,-0.034718,-0.44436,0.002366,-0.048864,-0.28286,0.96099,0.71708,0.18541,-0.30461,0.45149,-0.35281,-0.51423,-0.36497,-0.57892,-0.57107,-0.44058,0.61377,0.28936,0.77052,-0.49701,0.79004,0.39729,-0.33558,0.85206,0.6784,-0.57817,-0.22343
0.29939,-0.4449,0.70022,0.84682,0.53617,-0.53195,0.022899,0.83798,0.92895,-0.64241,0.60379,0.80221,0.77793,-0.34345,0.98793,0.97152,0.56604,-0.49874,0.33035,-0.14991,-0.63103,-0.88399,-0.046209,-0.04006,-0.42259,-0.032851,-0.027139,-0.97749,-0.074368,-0.47163
-0.40956,-0.41742,0.84732,0.56985,0.40197,0.78213,0.23987,0.52685,0.33652,0.61063,0.77118,-0.19502,0.61844,0.93207,-0.76945,0.66965,-0.65195,-0.11106,-0.026031,0.12416,0.4931,0.11495,0.15329,-0.33167,-0.4654,0.71366,-0.73313,0.95818,-0.69639,-0.62307
0.0058433,0.48611,-0.72161,-0.83914,0.0013798,-0.8624,-0.1026,-0.39214,0.098213,-0.83365,0.82345,0.12294,-0.89407,0.38246,-0.52297,-0.96795,-0.56362,-0.84981,-0.81604,0.98836,-0.58519,-0.065566,0.63504,-0.17821,-0.33558,-0.73773,0.74856,0.050728,-0.64907,-0.75505
0.19282,0.012218,0.10557,-0.091623,-0.2918,0.54573,0.45013,-0.97291,-0.40171,0.74143,-0.81955,0.91792,0.23646,-0.45142,0.025076,-0.72376,-0.59533,0.23404,0.74096,0.65717,0.86825,-0.43997,-0.59614,-0.4797,-0.73275,0.79314,-0.49011,-0.26617,-0.64272,0.77844
0.11353,0.86544,-0.42218,-0.45215,-0.084619,0.32071,-0.91704,-0.29771,-0.97403,-0.96139,0.17868,0.30405,0.16164,0.19641,-0.2032,0.56129,-0.023856,0.97117,0.98798,-0.45504,0.38945,0.51995,0.56926,-0.41375,0.12277,0.3357,0.85358,-0.4432,0.68392,-0.38188
0.48354,-0.14722,0.55901,0.32984,-0.91501,0.93234,-0.1099,0.8001,0.8242,-0.066395,-0.62376,-0.022058,0.01044,0.11889,-0.59063,-0.49465,-0.97915,-0.2636,-0.48016,0.09482,-0.22451,0.24596,-0.65926,0.81733,-0.692,0.85325,-0.39565,-0.75152,0.80656,-0.84111
0.083517,-0.97856,-0.70458,0.26732,0.27294,0.97083,0.4776,-0.1393,0.45931,-0.1339,-0.66695,0.47756,0.97817,0.13597,-0.46819,-0.73861,0.81631,-0.007083,0.60567,-0.64428,0.42114,-0.69536,0.73926,-0.87118,-0.57482,-0.55391,0.069829,0.15185,-0.28991,0.51435
-0.1818,0.88545,-0.25592,-0.80386,-0.75595,0.17815,0.052541,0.23092,0.2637,0.46098,-0.70908,0.03208,-0.88945,0.15948,-0.99591,0.45544,-0.1059,0.26473,-0.6157,0.99434,0.89573,-0.28873,-0.84571,0.95082,0.16977,0.57149,-0.19624,0.68168,-0.022118,0.39315
-0.32967,-0.81766,-0.819,-0.20858,0.1669,0.855,-0.34263,-0.36628,-0.16347,-0.1101,0.75637,0.8007,-0.48532,-0.98217,-0.57429,0.20579,0.88633,0.68994,-0.94867,0.06201,0.32549,0.6783,0.87296,-0.42765,0.47797,-0.89419,0.55879,0.39555,-0.12263,0.91771
-0.58691,-0.68514,-0.50605,-0.67829,-0.9921,-0.024815,-0.78711,-0.3758,0.17711,-0.34779,0.9377,0.22264,0.030717,-0.72735,0.3891,-0.73355,-0.72638,0.051828,-0.35356,-0.35204,-0.10723,-0.16679,-0.10806,-0.78843,0.67368,0.49924,0.72101,0.32762,-0.89929,0.1721
-0.22386,-0.42302,0.16742,0.94196,-0.96135,-0.067612,-0.79008,0.82981,-0.96227,0.98062,0.52886,-0.10032,-0.45248,-0.65531,-0.30982,-0.33179,-0.94793,-0.24857,0.41615,0.49854,-0.64023,0.34328,0.30138,-0.090506,0.76097,0.97031,0.32121,-0.67723,-0.26585,0.97715
0.028047,0.1636,-0.40392,0.91543,-0.236,0.73669,0.089483,-0.48355,0.27122,-0.37961,-0.21847,0.67776,-0.6457,0.028071,-0.74023,0.90096,-0.2798,0.19132,-0.3826,-0.19152,0.56747,0.15268,0.78415,-0.24832,-0.11003,0.12513,0.78691,-0.25775,-0.57553,-0.52798
-0.59313,0.75135,0.10803,-0.2166,0.06218,-0.024879,0.4884,-0.32051,0.85744,0.017454,-0.78371,-0.34254,0.058122,0.10072,-0.55607,-0.99774,-0.53876,0.80158,0.9626,-0.85432,0.68618,-0.3427,0.42683,0.66874,0.27198,0.37446,0.98647,0.42567,-0.68068,-0.33916
0.36406,0.62367,0.37871,-0.15502,-0.82086,0.47651,-0.72393,0.15287,-0.10371,-0.92613,0.16994,0.86409,-0.60402,-0.25984,0.72076,0.48844,-0.018524,-0.7231,-0.64719,0.50322,0.17737,0.83257,-0.12137,-0.15649,-0.13678,-0.96371,0.56995,0.8741,0.071839,-0.7352
-0.81136,-0.66142,-0.29045,0.71414,0.4721,-0.75614,0.25647,0.80585,-0.55845,0.42196,0.36307,-0.11573,-0.040355,0.5448,-0.63468,-0.93583,0.83404,0.64428,0.44343,0.30653,0.96043,-0.22262,-0.037228,0.38,-0.94246,-0.96179,0.47871,0.28862,-0.57065,-0.015465
0.41299,-0.041052,-0.071346,-0.80213,0.0069366,0.56578,-0.84803,-0.67089,-0.29071,-0.69977,-0.79032,0.87993,0.86732,-0.7175,-0.15183,0.39548,0.30561,0.79158,-0.57617,-0.47512,0.86168,-0.027578,0.1802,-0.21723,0.17112,0.044047,0.41173,-0.32266,-0.48213,-0.79358
0.8619,-0.4354,-0.29202,-0.6442,0.72883,-0.075787,0.12639,0.14955,-0.36901,0.84191,-0.030239,-0.82359,-0.90782,-0.97673,0.82469,0.4137,-0.91094,-0.0096489,0.9978,-0.1084,-0.87571,0.92375,0.3216,0.28508,0.18807,-0.88873,-0.1087,0.35071,-0.09141,-0.19032
0.89233,-0.85744,-0.62334,-0.10775,-0.58063,-0.10401,0.45851,0.96043,0.71617,-0.48644,-0.41968,-0.63592,-0.39932,0.34244,0.28708,0.071376,0.80513,0.69822,0.29152,0.19561,-0.70718,-0.93513,0.12776,0.43233,0.55975,-0.10974,-0.50561,-0.78613,-0.31088,0.84619
0.21925,0.36064,-0.55782,-0.17445,-0.73206,-0.192,-0.061507,0.71776,-0.23402,-0.94713,-0.44426,0.6978,0.80059,-0.40158,-0.44584,0.54336,0.8936,0.56263,-0.1066,0.56335,0.68996,-0.92458,-0.95438,-0.77096,0.87439,0.75729,0.18996,-0.94305,-0.77569,-0.96188
0.86855,-0.099964,0.62268,0.11637,0.74125,0.33632,-0.7673,-0.20411,-0.92755,0.095334,0.55903,0.14261,-0.57627,0.61804,-0.97899,-0.56662,-0.3317,0.13592,-0.94291,-0.8643,-0.6111,-0.84084,-0.5856,0.39901,0.014519,-0.54047,-0.97638,-0.66644,0.30809,-0.39786
-0.16776,-0.78919,0.90395,-0.43043,0.28022,-0.68053,0.6458,0.80253,0.92605,-0.3483,-0.52934,-0.045347,-0.76039,-0.11414,0.57313,-0.14268,0.6264,-0.82732,-0.80684,0.25758,0.75822,-0.079989,-0.7996,-0.54035,0.84972,-0.11708,-0.25684,0.55024,-0.040863,0.20575
-0.48109,0.92396,0.73431,-0.11403,0.34228,-0.23026,-0.91476,0.26045,0.38584,0.22146,0.90724,0.78069,0.36871,0.3228,-0.59227,0.62462,-0.88136,-0.012099,0.029238,0.77027,-0.45321,-0.19673,-0.6962,0.14874,-0.44848,-0.59929,-0.47431,0.79172,-0.98462,0.52531
-0.90564,0.21837,0.17096,0.50005,-0.6829,0.35638,-0.41606,-0.12931,-0.74874,-0.9334,0.40909,0.59991,-0.35883,0.37464,0.99343,-0.43618,-0.43858,-0.75402,0.062246,-0.4068,-0.083524,-0.057658,0.32507,-0.70504,0.39037,0.66146,-0.8326,0.6502,-0.55711,0.82947
-0.64177,-0.56483,0.82409,0.27946,-0.37839,-0.82115,-0.77789,-0.98522,0.22249,0.48839,0.21631,0.7444,0.089746,0.17406,0.85876,0.91129,-0.78162,-0.88145,0.68475,0.9164,-0.76084,0.067826,-0.42641,-0.78681,-0.8144,0.57843,-0.041676,-0.69103,0.51556,0.24712
0.070893,-0.52816,-0.97893,0.68674,0.75349,0.57847,-0.78553,0.81501,0.46551,-0.96852,-0.68261,-0.40557,0.93544,0.028234,0.25031,-0.43298,0.66271,0.59413,0.14041,0.063476,-0.084235,0.29492,0.52264,-0.018983,-0.031698,-0.38519,0.037418,0.74736,0.82802,0.47128
0.77817,0.8617,-0.4561,0.95849,-0.088557,-0.016839,-0.19117,-0.9323,-0.17573,0.75004,0.11846,-0.19187,-0.76327,0.60956,-0.88734,-0.31988,0.10427,-0.44477,-0.79445,0.75092,0.15889,0.057617,0.73703,-0.48802,0.58696,-0.29414,0.58345,-0.24402,0.47667,-0.24475
0.84156,-0.65014,-0.35269,0.65975,0.29324,-0.17631,0.46652,-0.32938,-0.92359,-0.7617,0.62626,0.015842,0.96104,0.62393,-0.10675,0.24134,-0.31634,0.014751,0.85072,0.2391,-0.12733,0.26249,0.047097,0.15968,0.2646,0.80489,0.817,0.31685,-0.74491,-0.19188
0.16658,-0.016016,-0.071109,0.48814,0.16549,0.6108,-0.22826,0.63057,-0.49736,0.40918,-0.1356,0.15824,0.71655,-0.50287,0.29124,0.70205,0.37992,-0.40733,-0.78658,-0.4062,-0.77339,0.0030214,0.2298,0.70197,-0.66879,0.18795,0.1623,0.47136,0.055532,-0.2712
-0.22853,-0.1899,0.49245,-0.83822,0.8978,0.9272,0.93503,0.99656,0.47202,0.1863,-0.6762,0.65979,0.80877,0.59966,-0.97617,-0.35587,-0.43645,-0.051125,0.19862,-0.32855,0.41143,-0.066926,-0.46164,-0.13974,-0.88505,0.80607,0.12217,-0.23016,0.33597,0.16584
-0.48944,0.45941,0.92124,-0.74115,-0.68927,0.34642,0.68312,0.69806,0.47503,0.23834,0.29107,0.094362,-0.80608,-0.97475,-0.42768,-0.37004,0.5307,0.9116,-0.90752,-0.47071,0.37581,0.27883,0.6511,-0.62595,-0.38091,0.67346,0.20373,0.36207,0.99955,0.17025
0.090548,0.59798,-0.57271,0.67397,0.14656,-0.77319,0.93278,0.2896,0.086637,-0.28429,0.065743,-0.6845,-0.20316,-0.253,0.5398,-0.72334,0.97886,-0.91041,0.20253,0.777,-0.6315,0.17421,-0.89577,0.47081,-0.9839,-0.17125,0.38263,-0.001334,-0.39186,0.35779
0.31019,0.32928,-0.60181,-0.62276,0.15305,0.97166,0.69119,0.090672,-0.92314,0.41134,0.86942,0.98252,-0.58987,-0.91371,0.78278,0.35099,0.052617,-0.0055088,-0.8615,0.41321,-0.73222,-0.45137,-0.017332,0.51259,-0.81049,0.028442,0.7104,0.85875,0.80622,-0.29856
-0.93324,-0.42388,-0.3141,0.049031,0.30189,0.76882,-0.28245,0.56893,-0.98352,0.031113,0.43973,0.79488,-0.48421,0.63909,-0.89074,-0.81059,0.52514,-0.99094,0.46025,0.86559,0.10062,0.72039,0.27729,-0.25723,-0.74949,0.22911,-0.52338,-0.51588,0.37548,0.94854
0.06933,0.039343,-0.10833,0.86874,-0.18995,-0.56493,-0.048594,0.57044,0.38645,0.78235,-0.61605,0.22132,0.5007,-0.90634,0.85499,-0.033967,-0.18701,-0.098585,-0.28049,0.077699,-0.91835,0.28694,-0.35847,-0.81829,-0.42742,0.68334,-0.66325,-0.60827,-0.61138,-0.55497
0.13639,0.24943,0.0093333,-0.48652,0.82462,-0.80707,-0.077488,0.91873,0.55511,0.2396,-0.82578,-0.61154,-0.46676,0.77837,0.63966,-0.51127,0.18865,-0.46503,0.55729,0.32499,-0.75006,0.19771,0.54854,0.25797,0.49606,0.75412,0.055481,0.026613,-0.42431,-0.10011
-0.027155,0.70768,-0.13837,0.81405,0.94096,-0.94475,-0.9471,0.38236,0.45599,-0.33968,0.63264,0.49654,0.94965,0.07595,0.3256,0.38225,-0.44965,-0.74595,-0.86877,0.16977,0.77317,0.26562,-0.13935,-0.43325,-0.68433,0.81559,-0.60583,0.011575,0.32676,-0.34544
0.65259,-0.027532,0.55354,0.74788,-0.75804,0.81104,-0.93674,0.28046,0.74972,-0.74682,-0.98171,0.80768,0.14369,-0.046401,0.59312,0.57721,0.83245,-0.34486,-0.4788,0.17683,-0.056939,0.51389,-0.66097,0.99417,-0.43112,0.46331,0.0007632,0.2192,0.74216,0.43606
0.53798,0.19547,0.77352,-0.41083,-0.16479,0.74733,0.26882,0.20541,-0.011101,0.27826,0.31543,-0.711,-0.76744,-0.42959,-0.84254,0.13042,-0.98015,-0.77422,0.40938,-0.31123,0.052369,-0.21858,-0.08809,0.57791,-0.42018,0.38637,-0.33805,0.88486,0.4165,0.9398
0.3098,-0.35718,0.40836,-0.44597,-0.57824,-0.29251,-0.46859,-0.33246,0.030666,0.051058,0.84519,-0.15395,-0.087575,0.93441,-0.80914,-0.79988,0.23109,-0.56347,0.79852,-0.026358,-0.48023,0.75794,0.78106,-0.57731,0.66901,-0.50985,0.6279,-0.089826,0.26949,-0.13849
0.93124,-0.72144,-0.22166,-0.045467,0.60964,0.40425,-0.11759,-0.78402,0.020963,-0.10267,0.034928,0.0022143,0.74743,-0.47422,0.075489,0.70244,0.63542,0.16852,-0.99465,0.2764,-0.2258,0.28949,0.60371,-0.045745,-0.81331,-0.038869,0.014657,0.28542,-0.38676,0.54831
-0.34633,0.12087,-0.1638,-0.28188,-0.56044,0.42944,-0.21261,0.67153,-0.55165,-0.11767,0.71378,-0.90092,0.30166,0.48834,-0.34065,-0.58063,0.62307,-0.73354,-0.026116,0.68284,0.45594,0.45425,0.057962,-0.16312,0.96881,0.9309,-0.82919,-0.32209,0.094282,0.70306
0.42484,-0.23499,-0.29621,0.50505,-0.12327,0.20789,0.25176,-0.7567,-0.048065,-0.13037,0.87649,-0.92803,0.76075,0.29899,0.46436,-0.13474,0.64239,-0.40905,-0.70695,-0.89068,-0.21943,0.03198,-0.21708,0.029922,0.52713,0.41821,0.52157,-0.2028,0.51255,0.61029
0.20262,0.42382,0.22593,-0.38181,0.86015,-0.42298,0.3209,0.53203,-0.14751,0.47085,-0.65435,-0.51717,-0.98531,0.51242,-0.90869,0.77925,-0.40495,-0.84259,-0.86538,0.83913,0.09389,0.94916,-0.08535,0.89208,0.87842,0.4645,-0.25357,0.70339,0.6254,-0.19071
0.79384,-0.69245,0.35134,0.3978,-0.74558,0.76228,0.15006,0.71058,0.27019,-0.072334,-0.90203,0.68725,-0.35714,-0.3246,-0.01553,-0.97824,0.78468,-0.066431,0.26929,-0.073948,-0.37586,-0.76134,0.59314,-0.75249,0.16828,-0.31003,-0.79463,-0.042962,-0.045386,-0.47378
0.2738,-0.87639,-0.31587,0.0041545,-0.51228,0.05277,0.48333,-0.71899,-0.67684,0.47961,0.72321,0.51918,0.041346,-0.52796,0.46387,0.22647,0.73179,-0.85477,0.61165,0.15995,0.24675,-0.036182,-0.74285,-0.83662,0.85916,-0.77095,0.15431,-0.40386,0.91779,-0.5469
0.7218,0.55725,-0.92179,-0.59063,-0.6217,0.6284,0.3466,-0.88757,0.86717,-0.72816,0.82371,-0.4986,0.49432,-0.66503,0.90589,-0.86537,-0.89256,0.4187,0.20981,0.8016,0.096516,-0.97064,0.66564,-0.53833,-0.33874,0.051224,-0.87766,0.87109,-0.93601,0.25659
-0.71245,0.1774,0.82739,0.46474,0.28362,0.63548,-0.34179,-0.32079,0.26036,0.42708,0.69074,0.1627,-0.17114,-0.49742,-0.98618,0.32837,0.20402,-0.32671,0.22069,0.6308,-0.64704,0.2777,-0.72057,0.38583,0.77406,0.073045,-0.971,0.68176,0.18937,0.25714
-0.97352,0.043323,-0.55547,-0.41435,0.48755,-0.50797,-0.83237,-0.9109,-0.94224,-0.171,-0.41686,0.23184,0.8618,0.39371,0.69358,-0.52782,-0.33983,0.8294,0.5641,-0.51328,0.32146,0.54315,-0.96587,-0.39524,0.40699,-0.18189,-0.12815,0.28752,-0.47276,0.073615
-0.48799,0.66781,-0.44391,0.069353,-0.14767,-0.30532,0.85288,0.28023,-0.59648,0.46881,-0.11275,0.95504,0.74277,0.95823,0.62314,0.7096,0.89824,-0.59659,-0.67795,-0.93498,-0.78659,-0.24035,-0.17753,-0.81434,0.89742,0.23459,0.37974,-0.96188,-0.73585,-0.91271
0.0017709,-0.68133,0.064408,-0.65148,-0.27338,-0.3461,0.68352,0.58561,-0.44279,0.57693,-0.94535,-0.82445,0.99945,-0.87278,-0.17615,0.48819,-0.0012605,0.8683,-0.67228,0.37282,0.39841,-0.69346,-0.87959,-0.048018,-0.028932,-0.65758,0.034401,-0.25443,-0.78414,0.012914
0.32422,-0.27699,0.23652,-0.44385,0.2264,-0.84914,-0.13464,0.58672,0.13632,-0.82266,0.93133,-0.94417,-0.76149,-0.7539,-0.19295,-0.99076,-0.28653,-0.67295,-0.65274,-0.05769,-0.54697,0.44131,0.24057,0.67434,-0.29141,-0.56198,-0.97095,-0.50632,-0.98436,0.68337
0.1591,0.68846,0.75491,0.048709,0.29333,-0.43143,0.27607,-0.61131,0.3573,-0.027062,0.3601,-0.42396,-0.23868,-0.11674,0.69264,0.39679,0.98916,-0.50055,-0.80438,0.2791,0.0022494,-0.89921,-0.72182,0.86393,0.6153,0.3906,-0.36953,-0.2514,-0.038414,-0.41525
-0.78985,0.34332,-0.61709,0.36185,-0.88218,0.13106,-0.58781,-0.77135,0.91799,0.34168,-0.74612,-0.55119,-0.7464,-0.49485,-0.53181,0.99201,-0.72713,0.80249,-0.24885,-0.65453,0.55207,0.030035,-0.29746,-0.58824,0.43936,-0.093504,0.3586,-0.30665,0.53044,0.5018
0.3215,0.4054,0.37786,-0.88616,-0.76255,0.29679,0.18286,-0.40458,0.1797,0.83658,-0.75508,-0.72268,-0.18974,0.47316,0.64675,0.39412,-0.01362,0.34743,-0.56896,-0.80721,0.76774,0.86806,0.54394,-0.20335,0.34413,-0.37712,-0.16352,0.97383,0.42162,0.90821
-0.69452,-0.013238,-0.71215,0.72202,0.87757,-0.66286,0.058033,-0.48509,0.45579,0.14716,-0.33365,-0.51812,-0.26479,0.14163,-0.84811,0.059051,-0.31602,0.58722,-0.69438,0.8958,0.91153,0.63842,-0.37397,-0.20159,0.88574,0.48704,-0.90527,-0.098708,0.53747,0.46208
-0.96379,-0.91989,0.98543,-0.12415,-0.84337,-0.033061,0.17859,0.9414,0.32179,-0.043378,0.32125,-0.53985,-0.53249,0.17088,0.77568,-0.15183,-0.6747,-0.58115,0.20285,-0.87171,-0.04465,0.64578,-0.95863,-0.98818,-0.51399,-0.70553,0.93752,-0.7122,-0.39031,-0.62396
-0.38393,-0.01961,-0.56095,0.70446,0.16632,-0.7712,0.0071653,-0.51532,0.82777,0.86697,0.90071,-0.25632,-0.92825,0.605,0.54946,-0.72992,0.23582,-0.8239,0.30915,-0.067801,-0.45425,0.31155,0.4236,0.22837,-0.55884,0.3763,0.99815,0.097744,0.76603,0.08854
0.29877,-0.045993,-0.18943,0.59202,0.10543,-0.20698,-0.50556,-0.84482,-0.7857,-0.51856,-0.43097,0.46885,-0.95164,0.029933,-0.22427,0.3562,0.39883,0.69475,0.97592,0.05759,-0.66345,0.040034,0.43081,0.5105,0.50185,0.8903,0.34795,0.32113,0.21011,-0.7311
-0.52543,-0.18521,0.63823,0.89199,-0.27618,-0.88526,0.034618,-0.72693,-0.82864,-0.27045,0.54808,-0.95816,0.58114,0.22441,0.32229,-0.77518,-0.070748,-0.14449,0.91839,-0.024214,-0.69404,-0.056917,0.38316,-0.47055,0.0039734,0.27249,0.27646,-0.95276,0.26173,-0.15197
-0.44354,-0.53709,0.71483,0.95899,-0.89983,-0.3777,0.99065,0.71462,-0.15848,0.54866,-0.32885,0.34694,-0.13211,-0.027482,0.355,-0.55955,0.43753,-0.19045,-0.27179,0.58844,-0.59073,0.47488,0.19659,0.6949,0.96888,-0.78604,0.46678,-0.94849,0.72555,0.13941
-0.5866,-0.054629,-0.80927,0.52585,-0.50104,0.72387,0.75352,0.46377,0.55948,-0.42111,0.17582,0.9777,0.63808,-0.075801,-0.6368,-0.28086,0.68364,0.09541,-0.11724,0.66932,0.37468,-0.46505,-0.79174,0.36733,-0.37984,0.20996,-0.99282,0.0037685,0.010858,0.45618
0.24534,-0.98133,-0.45067,-0.2896,0.36385,-0.016717,-0.70179,0.42318,0.99161,-0.55489,0.16498,0.40768,0.8792,0.60766,-0.82283,0.70717,-0.52649,-0.22567,-0.29748,-0.54268,-0.43131,0.076187,-0.23034,0.12514,0.78566,0.54377,0.78248,0.55486,0.074676,0.75383
-0.60522,-0.011306,0.10436,-0.61546,0.63749,0.54027,0.4017,0.070717,-0.54773,-0.62929,0.089318,0.84639,-0.86328,-0.98,0.8237,0.35979,-0.10862,0.43469,-0.69296,-0.34972,0.46912,0.62749,0.2953,-0.90393,-0.018903,-0.51886,-0.54899,0.64091,-0.86873,-0.22426
-0.50474,0.73658,-0.49567,0.47813,0.1987,-0.49597,-0.79741,-0.96488,0.49731,-0.17198,-0.55713,-0.50538,-0.14297,-0.98096,-0.80241,-0.062788,-0.27197,-0.084021,-0.82778,0.1283,-0.82764,0.81224,-0.60174,0.49781,0.11936,0.8913,0.31144,-0.88826,0.44999,0.60192
0.29765,-0.28344,0.27916,-0.93991,0.20398,0.28747,-0.60866,0.81374,0.38139,-0.070876,0.9265,-0.804,-0.5256,-0.6536,0.18693,-0.14024,-0.61444,0.060624,0.1301,0.1478,0.72487,0.64854,0.50453,-0.69079,-0.75949,-0.40259,0.71539,-0.68828,-0.77051,0.13414
0.030953,0.7721,0.15336,0.52909,0.12049,0.05431,-0.3104,-0.21373,0.37656,-0.29676,-0.5485,0.42465,-0.62743,0.35771,0.62165,-0.9831,-0.79024,-0.62848,0.96854,-0.50167,0.16801,0.14004,0.64543,-0.75704,0.92699,-0.87006,0.71998,-0.36659,0.10477,0.049185
-0.29913,0.64328,-0.23907,-0.81584,0.46109,-0.16216,0.40435,0.4102,-0.46307,-0.3815,-0.45911,-0.71804,0.69572,0.59744,-0.038263,-0.28629,-0.54928,0.92057,0.20001,-0.37932,0.075798,-0.66136,-0.58753,0.39082,0.27494,0.30711,-0.54036,-0.54818,0.4591,-0.6577
0.15922,0.78977,0.018981,-0.032633,-0.020926,-0.27982,-0.4185,0.31957,0.26095,0.3176,-0.33279,-0.77241,0.16919,0.18129,-0.75753,0.26045,0.75432,0.90751,0.66753,0.77994,-0.63816,-0.57614,-0.86991,0.87502,0.71483,0.71894,-0.75806,0.468,0.58838,-0.1401
0.86938,0.39629,0.80271,-0.015083,0.89171,0.17801,0.05019,-0.9751,-0.59397,-0.51129,-0.77471,0.40612,-0.42598,-0.61804,0.42413,0.30133,0.9493,-0.44135,-0.54604,0.18449,0.60956,0.83868,0.4525,-0.62466,0.36829,-0.50116,-0.25363,-0.53915,-0.91018,-0.78691
-0.0086532,-0.63363,0.3731,-0.86037,0.76015,-0.086337,0.23921,-0.83503,0.29163,0.76639,-0.70083,0.71736,-0.29385,-0.66037,-0.15881,0.99279,0.40824,0.13295,-0.57408,0.16347,0.028879,0.20432,-0.5725,0.91289,-0.05512,-0.5233,-0.85685,0.89515,-0.49859,0.49995
-0.57735,-0.56579,0.51192,0.91257,-0.12946,-0.12175,-0.21661,0.065951,-0.0076577,0.0064185,0.43337,0.48571,0.87306,-0.41154,0.98699,-0.33634,0.3522,-0.68603,-0.8632,0.40779,-0.7311,-0.74565,-0.67916,-0.19264,0.87099,-0.49354,-0.44708,0.61858,0.45166,-0.65082
-0.2533,-0.162,0.49371,0.78264,-0.05484,-0.99588,0.78491,0.79273,-0.70104,0.88279,0.72611,-0.64263,-0.48357,-0.0077517,-0.56498,-0.74285,0.32068,-0.95307,0.13122,-0.24705,-0.8079,-0.77357,-0.63537,-0.25203,0.96979,-0.36589,0.049075,0.18082,0.54593,0.70141
0.10449,0.40076,-0.036699,-0.34201,-0.52759,-0.18014,0.89789,0.14727,0.2496,-0.93286,-0.11873,0.87942,-0.68372,-0.99587,-0.96342,0.37509,-0.3765,-0.43237,0.15627,-0.46268,-0.92018,0.23617,0.77569,0.95422,-0.45613,0.13599,0.63787,-0.77695,-0.65578,-0.30705
-0.94613,-0.28088,-0.03713,0.77501,0.1273,0.13581,-0.98054,-0.043639,0.76813,-0.37152,0.88936,-0.78238,-0.66981,-0.026986,0.36767,-0.70184,-0.61944,-0.031209,-0.49972,-0.37261,0.93791,0.48909,-0.46999,-0.47044,-0.83881,-0.20447,0.39775,0.73779,0.94476,-0.098643
-0.57042,0.47702,0.78089,-0.83279,0.61241,0.48382,-0.63437,-0.17862,0.66543,-0.63386,-0.37915,0.16235,0.84169,-0.53586,0.91471,0.79676,0.078136,-0.049188,-0.44804,0.80574,0.32107,0.71908,-0.46537,0.22064,-0.84695,-0.89906,0.25636,0.052866,0.91653,-0.33502
0.24555,0.70108,0.5718,0.10644,0.0017343,0.48266,-0.17003,0.61505,0.36702,-0.44576,-0.2141,-0.95152,0.51924,-0.68459,0.8329,-0.86313,-0.42971,-0.5826,0.98004,0.89695,0.0026891,-0.26052,-0.75043,-0.76372,0.10369,-0.29242,0.79187,-0.020857,-0.11457,0.43871
0.97984,0.17819,0.73653,0.84901,0.5402,-0.23948,0.37799,0.44479,0.70484,-0.49758,-0.92949,-0.14249,0.41651,-0.47778,-0.10168,0.40754,-0.36251,0.576,-0.29014,0.46352,-0.5309,-0.22354,-0.41163,0.63067,0.16214,-0.041106,-0.50438,-0.63919,0.8205,-0.53249
-0.31971,-0.18228,0.80505,-0.40546,0.73738,0.54374,-0.69269,-0.17511,-0.18156,-0.14561,-0.93239,0.40639,0.97152,-0.6368,-0.58397,-0.039741,-0.3601,0.56492,0.73768,-0.52123,0.73041,0.26744,0.94555,-0.73442,-0.045281,-0.52504,0.28843,-0.0064311,0.33749,-0.93886
0.46669,-0.36987,0.14687,0.42728,0.97261,-0.48519,0.027276,0.6336,0.85101,-0.52971,-0.86552,0.83434,0.75916,0.75392,0.75578,-0.41166,0.52052,-0.23412,0.76128,0.84017,0.3034,-0.27833,0.39232,0.082563,0.53527,0.41205,0.74406,-0.59781,-0.30655,-0.15986
0.2697,-0.60119,0.84007,0.10185,-0.098629,-0.73845,0.83452,-0.90403,-0.88458,-0.86491,-0.63737,-0.70827,-0.6927,0.18172,0.98161,0.34197,0.54107,0.70343,-0.80941,-0.2883,0.9053,0.91823,-0.43065,0.7108,-0.6631,-0.82933,0.2771,-0.99672,-0.63942,0.55951
-0.6198,0.66995,0.70578,-0.58835,0.26714,-0.92756,0.45382,-0.62203,-0.35105,-0.6261,0.3061,-0.467,0.356,-0.1502,-0.9105,-0.9229,0.50984,0.45669,0.29409,0.82829,0.90504,0.68334,-0.7286,-0.19016,0.81276,0.90118,-0.51405,0.32077,-0.55315,-0.56604
0.41758,-0.57173,0.78969,0.50372,0.21729,0.44303,0.42945,0.85578,-0.30544,0.86844,0.46849,0.28921,-0.22652,-0.9066,0.52923,0.92735,-0.42225,0.501,0.016401,0.68612,0.63112,0.83817,-0.19655,0.80757,-0.91905,0.50428,-0.86071,0.06028,-0.41006,0.58416
0.66004,-0.78563,0.40703,-0.78105,-0.21733,0.29454,-0.57987,0.91351,0.28856,-0.951,-0.28691,0.37035,0.0064273,0.71928,0.29139,0.23838,-0.26754,0.78966,-0.88278,-0.75516,0.35754,0.57991,0.78235,0.4807,-0.44923,0.66981,0.12986,0.72585,-0.47173,-0.44215
0.83184,0.7375,-0.12987,-0.88348,-0.34656,0.66834,0.90481,-0.079389,0.28314,-0.91009,-0.0041422,0.46817,0.74356,0.72602,-0.28415,0.74733,0.37764,-0.23203,0.66347,-0.83805,0.86384,-0.15442,-0.823,0.48189,0.56143,0.75899,0.48538,-0.15501,-0.52545,0.92226
0.74106,0.17326,0.15655,-0.46995,-0.43881,0.013744,0.1003,0.85387,-0.86442,-0.53749,0.022602,-0.55817,-0.70086,0.50533,0.55468,0.19166,0.23347,-0.12002,0.97995,0.21554,0.040965,0.20811,-0.24756,-0.77373,0.075738,0.83422,0.9355,0.88692,-0.36899,-0.90708
-0.19319,-0.92288,0.53963,0.15184,0.70163,-0.59454,-0.17169,0.387,-0.17298,-0.70459,0.64534,-0.30009,0.037713,-0.00014977,-0.4571,-0.6912,-0.69312,0.49536,0.9393,0.77348,0.67679,-0.70999,0.8089,0.76137,-0.8336,0.55855,-0.13674,0.31692,0.28777,-0.83835
-0.62581,-0.98757,0.18111,0.91983,-0.77021,0.46376,0.027027,-0.34654,0.58746,0.99936,0.18599,-0.5005,-0.1498,-0.66734,-0.089278,0.76945,0.022934,0.16861,-0.67752,0.76671,0.51164,0.19038,-0.59033,0.45952,0.5553,-0.075333,0.31772,-0.16934,-0.17539,0.80957
-0.93047,0.33481,0.032553,-0.31416,-0.72752,-0.24339,0.33501,0.22253,-0.25573,0.54046,-0.75203,0.7674,0.93736,-0.15771,0.31365,0.13651,-0.41294,-0.25071,0.64543,-0.41636,-0.54417,-0.22172,0.61835,-0.4827,-0.71769,-0.32113,0.062759,-0.94519,0.23951,0.11166
-0.53046,-0.050904,-0.031231,-0.053684,0.42147,0.78022,-0.87485,0.8317,-0.54171,-0.52364,-0.87143,-0.81695,-0.7866,0.1148,-0.53962,0.14638,0.065954,0.6723,-0.19794,-0.99509,-0.56912,-0.87885,-0.24876,-0.13177,0.51224,0.26132,0.11145,0.60461,0.0074418,-0.55782
0.1052,-0.22487,0.78862,0.35156,0.70425,-0.14841,-0.95447,-0.98075,0.84379,0.90192,-0.71407,-0.98452,-0.19518,-0.50264,-0.49941,-0.92514,0.9224,0.99738,-0.9105,-0.49673,0.86901,-0.70453,0.74304,-0.45787,-0.21297,0.40244,-0.33144,0.93658,0.31324,0.022155
0.94536,0.46731,-0.84598,-0.51251,0.024592,0.82621,-0.43371,-0.083525,0.41945,0.13896,-0.18735,-0.32461,0.59101,-0.44076,0.072263,0.32836,-0.80697,-0.5941,0.569,-0.35845,-0.18363,0.93498,0.67925,0.33315,0.35003,-0.29261,0.61347,-0.092447,-0.5433,0.12162
0.84271,-0.092414,-0.2695,-0.053365,-0.11993,0.25721,0.50278,-0.96798,0.20991,-0.88112,0.25953,0.092556,-0.46109,-0.9457,-0.7912,-0.81414,-0.6261,-0.39507,-0.34831,-0.4413,0.9028,-0.91225,-0.3343,-0.93817,-0.37287,0.8661,-0.89353,0.4848,0.49888,-0.72545
-0.97221,-0.82273,0.74239,-0.0081684,0.79851,0.87424,0.27844,-0.34173,-0.8104,0.16439,0.40245,0.86557,-0.19763,0.7979,0.54872,0.68049,0.30948,0.77428,-0.33756,-0.42261,0.71052,0.15409,0.3838,0.98232,-0.7495,0.4611,0.82602,-0.62078,0.17777,-0.027242
-0.14568,0.57353,0.65746,-0.94632,-0.25107,-0.7343,-0.87092,0.63313,-0.38671,0.114,-0.80621,-0.10237,0.91011,-0.68935,0.25585,-0.28897,-0.40117,0.014359,-0.84886,0.65277,-0.53461,-0.2541,0.83215,0.44003,0.54158,0.61775,-0.11156,0.55227,-0.53299,0.97997
0.68478,-0.57746,0.98447,-0.49,0.4073,-0.26987,-0.41578,0.61951,-0.12875,-0.97232,0.21016,0.47476,0.93413,0.17983,0.91436,0.044509,0.26388,-0.12359,0.014337,-0.3419,0.84145,0.2761,-0.19015,-0.38164,-0.0046501,-0.97644,0.076751,-0.49121,0.9411,-0.67914
0.51102,-0.53582,0.1334,0.77607,-0.55094,0.37297,-0.79131,-0.81749,-0.37257,-0.18064,-0.76626,-0.16738,0.21237,0.70113,0.42414,-0.80662,-0.47097,-0.11758,-0.463,0.42768,-0.61935,-0.22291,0.84568,0.022105,0.079863,0.023501,-0.66713,-0.082498,-0.91386,-0.17887
