-0.17554,0.15179,0.66027,0.065815,0.38241,0.38015,0.1528,-0.62747,0.68954,0.76089,-0.11793,-0.53225,-0.016481,0.3786,0.97746,0.014924,-0.46827,0.46329,0.68622,0.22733,-0.067512,-0.25867,0.75593,-0.70043,0.35724,-0.66067,-0.31259,-0.26213,0.40282,-0.58719,-0.68381,-0.28629,0.22675,0.34553,-0.1897,-0.33309,-0.41016,0.99248,-0.83109,-0.67192,-0.67951,-0.79323,0.84101,0.66039,0.17199,-0.53012,-0.69832,-0.49006,-0.23448,0.53755
-0.19231,-0.10772,0.64383,-0.67291,-0.10738,0.034001,-0.26324,0.75501,-0.52999,-0.76208,-0.34273,0.57039,0.98441,-0.27032,-0.82625,0.64563,-0.86027,-0.27609,-0.13276,-0.047588,0.5761,0.67808,-0.62888,-0.76754,0.54967,0.08822,0.65758,0.30326,-0.045435,0.11918,0.63014,-0.18048,0.84496,-0.47086,0.99397,0.59758,0.75176,-0.54068,-0.29431,0.78088,-0.9428,-0.95305,-0.29555,0.62184,0.24353,0.62236,-0.51919,-0.69174,0.20034,0.87724
-0.69365,0.69302,-0.34459,-0.96167,-0.16507,-0.6073,-0.45677,0.23034,0.016571,0.71988,0.094207,0.74194,-0.21027,-0.85348,0.80095,-0.14236,-0.32722,0.79058,0.98254,-0.59844,-0.45179,0.15599,-0.3965,0.36714,0.82375,-0.93077,-0.71452,-0.85487,-0.2212,0.54487,-0.42297,-0.86793,-0.47875,-0.965,0.9999,0.20102,-0.69418,-0.70476,-0.73371,-0.17926,0.85492,-0.94555,-0.74923,0.68634,-0.28117,0.5685,-0.56357,-0.61911,-0.49409,0.66191
0.75013,0.18683,0.83333,-0.99749,-0.53943,0.67802,0.97101,0.5155,0.33871,0.73098,0.71677,0.1077,0.89455,0.83577,-0.52381,-0.68463,0.76876,0.94349,-0.27325,0.17699,-0.86525,-0.76187,-0.3014,0.71105,-0.2915,0.62913,-0.82511,-0.74996,-0.2149,0.13803,-0.89642,0.67371,-0.29845,0.24893,-0.40634,-0.80311,0.90106,-0.22415,-0.072405,0.28246,0.48895,-0.67989,-0.51781,-0.30325,-0.050096,0.48571,0.16403,0.2941,0.20102,-0.52887
0.75467,-0.89341,0.2585,0.0010512,0.72079,-0.80507,0.29584,0.089839,-0.81852,0.79092,0.82875,0.79555,-0.8172,-0.79448,0.61853,0.34978,-0.98376,-0.97743,0.54206,0.71972,0.96871,0.43599,-0.646,-0.71069,0.087666,0.1902,0.81277,-0.6448,-0.66668,0.014274,-0.62324,-0.40601,0.53808,0.34599,0.017368,0.49088,0.092316,-0.84769,-0.81001,-0.76448,0.20591,0.28757,-0.035256,0.87758,-0.37209,0.48512,-0.3536,0.57647,-0.59375,0.10097
-0.81431,0.37518,-0.85635,0.83504,0.88005,-0.45818,-0.21795,-0.60682,0.085997,-0.97662,0.252,0.89666,-0.23451,0.49689,0.23019,-0.44674,-0.70528,0.090671,0.33742,0.47917,-0.068421,-0.82499,-0.64019,-0.11358,0.30633,-0.1884,0.80751,-0.40041,-0.22985,0.87076,0.35115,0.79379,0.042361,-0.19817,0.68975,-0.30769,0.68198,0.02597,0.42853,0.69468,-0.28074,0.57297,0.83586,-0.85472,-0.86707,-0.82728,-0.947,-0.98352,0.36736,0.24149
-0.33482,-0.74272,0.35741,0.89175,-0.36728,-0.10901,-0.76826,0.52128,-0.40402,0.5922,0.034422,-0.4014,0.46104,0.56858,-0.44158,-0.25043,-0.42305,0.41785,-0.71952,0.69679,-0.70134,-0.46427,0.56289,-0.96511,-0.64493,0.28807,-0.53088,0.64513,-0.51025,-0.12774,0.34782,-0.387,-0.29134,0.77194,0.15405,-0.45938,0.66104,-0.85045,-0.26513,0.82331,0.24645,-0.28294,-0.44478,-0.61701,-0.51396,-0.39137,0.20617,0.9673,-0.69656,0.92322
0.38698,0.88304,-0.28122,-0.31331,0.94118,0.1477,-0.38325,-0.65549,-0.23631,-0.63571,0.074962,-0.0010091,0.49238,-0.29373,0.30182,-0.20641,-0.73469,0.85793,-0.80674,0.029165,-0.25459,-0.80036,0.35244,-0.81691,0.96957,-0.26731,0.015609,0.3755,0.62113,0.51342,0.16423,-0.18689,-0.28676,-0.035302,0.027944,-0.52292,-0.21745,0.81644,0.52609,-0.6869,-0.19228,-0.095144,0.2677,0.098615,0.21169,-0.08426,0.092663,-0.98429,-0.33937,0.91187
-0.65821,-0.92204,-0.693,0.084668,0.77643,-0.78531,-0.9172,0.72312,0.067773,-0.93539,-0.67799,-0.21266,-0.65319,-0.95769,0.77377,-0.73577,-0.91798,-0.93184,0.94814,-0.31779,-0.19293,-0.20534,0.079104,0.36031,-0.99454,0.99994,0.10125,0.89399,-0.36564,-0.17235,-0.7348,0.71351,0.54151,-0.038834,-0.94735,0.69287,-0.47389,0.0065243,-0.048968,-0.6916,0.29715,-0.23002,0.18137,-0.053864,-0.13599,0.088555,0.21122,0.62304,0.5478,-0.59481
-0.30816,0.41091,-0.90075,-0.30089,0.64412,-0.7791,-0.23952,0.66304,-0.14695,-0.67371,-0.72354,0.8981,-0.27608,-0.96716,-0.23827,0.93245,0.80429,0.83011,-0.70332,-0.6376,0.11732,0.30079,0.24262,0.88521,-0.60846,0.41209,0.27666,0.46272,0.12268,0.55437,0.38156,-0.04664,-0.78903,0.8181,-0.97389,0.13128,0.54723,-0.71203,0.13549,0.4548,0.12196,0.79421,-0.13003,-0.84806,-0.12973,-0.1501,-0.026119,-0.7825,-0.31493,-0.41491
-0.26986,0.53167,0.62794,0.0062618,0.28924,-0.96805,0.4474,0.4981,-0.53593,0.096351,0.19091,0.87922,0.32272,-0.32201,0.73717,0.92232,0.92998,0.15615,-0.28771,-0.83634,0.5896,0.88733,-0.47548,-0.072296,-0.0635,-0.6064,0.14558,-0.91899,-0.41451,-0.18533,-0.96213,0.0077881,-0.84038,-0.37179,0.34754,-0.53326,0.66634,0.13759,-0.43851,0.084199,-0.60926,0.88376,0.66392,-0.94466,-0.81001,-0.5505,0.99358,0.8399,-0.87355,0.14712
-0.31668,0.4023,0.77487,-0.82082,0.66999,-0.14917,0.55391,0.44243,-0.94316,0.53679,0.21392,0.46708,0.25553,0.44091,0.8258,-0.97198,-0.15141,-0.71912,-0.65963,-0.073861,-0.46742,-0.50036,-0.37564,0.91747,0.11377,0.65915,0.062939,0.8901,0.61206,-0.29791,-0.77647,0.36361,0.91655,-0.44322,0.70819,-0.45445,-0.46137,-0.80651,-0.69883,-0.74371,-0.83497,-0.55787,-0.76473,-0.8967,-0.88117,-0.28724,-0.37983,-0.94157,0.45861,0.0091817
0.83078,-0.21047,-0.97595,-0.44569,-0.90523,-0.39903,-0.79904,0.046109,-0.94794,0.55902,0.28862,-0.29945,0.44947,0.8028,0.82221,0.01873,-0.69127,-0.38208,0.54684,-0.8173,-0.27369,-0.37911,0.70742,-0.0026445,-0.49179,-0.39502,0.83821,0.88811,-0.6309,0.77778,0.901,-0.44239,0.81672,0.72236,0.7143,0.78212,0.49472,0.58207,-0.55819,0.66798,0.4554,0.56066,-0.066669,-0.21141,0.74631,-0.82431,-0.45699,0.21462,0.19576,-0.9187
-0.65757,0.78705,-0.50047,-0.24305,0.18273,-0.45603,0.83984,0.82443,-0.4514,-0.30186,-0.87279,-0.3228,0.34521,-0.052689,0.76099,-0.60982,0.97884,-0.50416,0.50719,0.17904,-0.75889,0.2261,-0.88182,0.56715,0.98993,0.046035,-0.96812,-0.81953,-0.95812,-0.89924,-0.48888,0.64126,-0.25886,0.69364,0.51388,0.025183,0.23234,-0.36834,0.33711,0.061234,0.042892,-0.093661,-0.34537,0.94456,-0.66738,-0.15922,-0.58969,0.44316,-0.91437,-0.55773
-0.61325,-0.060503,-0.89314,0.56917,0.98482,0.31147,0.37431,-0.43822,0.38896,0.41651,-0.8731,0.57791,-0.91421,-0.88852,-0.56807,0.70604,0.39718,-0.90541,-0.59834,0.68068,0.034316,0.40437,-0.32727,0.33644,-0.10672,0.24973,-0.58533,-0.72605,-0.2379,-0.03093,0.90673,0.9958,-0.80477,0.64491,-0.53745,0.61356,-0.1869,-0.42396,-0.48916,0.6041,0.033444,0.043232,-0.60386,-0.28414,-0.71686,-0.891,0.72116,-0.84385,0.58552,-0.41913
0.93242,0.23118,-0.2964,-0.70816,-0.48713,0.5322,-0.77104,-0.77853,-0.34,-0.33875,0.20771,0.58876,-0.40047,-0.18446,-0.97159,0.70577,0.36847,-0.60277,0.77311,-0.9189,0.59042,-0.42472,0.88498,-0.25,-0.88942,-0.9905,0.16551,-0.26856,-0.74305,0.61994,0.014943,0.50356,-0.26459,0.17574,0.047472,0.8076,0.31019,-0.24406,-0.79554,-0.83452,-0.9488,0.89787,0.61746,0.059607,0.31024,0.9968,-0.74323,0.44877,0.59498,-0.92204
-0.077921,-0.73852,-0.25243,-0.21447,-0.78764,0.82109,0.51768,-0.29113,0.50098,0.23212,-0.18349,-0.29681,-0.025254,-0.32849,-0.81597,0.14859,-0.2072,-0.40371,-0.11986,-0.2303,0.80665,-0.62581,-0.73952,-0.8644,0.39285,0.55074,0.48245,-0.73214,-0.94868,-0.11065,-0.12328,0.86529,0.38076,0.96847,0.032415,0.40005,-0.086083,-0.28352,0.34298,-0.55072,-0.070636,-0.65969,0.68159,0.50876,-0.82853,-0.62041,0.63519,0.83295,0.84075,0.27947
0.46976,0.6705,0.40033,0.85646,-0.51436,-0.041977,0.49381,-0.76438,0.5913,-0.082211,-0.12239,-0.33152,-0.31215,-0.39179,0.43873,-0.36609,0.98177,0.97914,-0.12256,0.059812,-0.71891,0.056995,0.51287,0.29409,-0.52467,-0.57521,0.052859,0.0043584,-0.15585,0.088085,-0.50695,0.42409,0.83222,-0.49882,0.24898,-0.016407,0.4985,0.30547,-0.62086,0.7048,-0.0035012,0.37544,0.49399,-0.27762,0.54986,-0.46202,0.71916,0.39564,0.12448,-0.28972
-0.82641,-0.10646,-0.11707,-0.5022,-0.35431,0.74802,0.63544,0.21186,-0.89252,-0.56176,-0.84117,-0.18908,-0.84888,-0.40703,-0.38324,-0.22649,0.81987,0.9468,0.36774,0.29669,-0.54685,-0.44315,-0.8668,-0.11323,-0.40062,-0.59204,0.91553,0.4323,0.70481,-0.06514,0.73503,0.28784,0.12336,0.49926,0.0094924,-0.17749,-0.79317,-0.19972,-0.2706,0.25051,-0.50446,-0.28006,0.58109,-0.56872,0.047034,-0.78205,-0.0052118,0.77428,-0.72689,0.11894
-0.56933,0.84329,0.75813,0.46381,0.11621,-0.83385,0.19973,-0.28023,-0.98155,-0.13588,-0.18467,0.11908,-0.32759,0.94284,-0.57385,0.52962,-0.70775,0.00037231,-0.77671,-0.78149,-0.38671,-0.10229,0.89602,-0.69977,-0.4879,0.5896,0.97191,0.24931,-0.64507,-0.75121,-0.22131,0.85194,0.18133,-0.38314,-0.37108,-0.013971,-0.67921,0.0078433,0.087091,0.41761,0.67725,-0.84322,0.86251,-0.9708,-0.51556,0.90093,0.74482,0.20466,-0.32764,-0.57701
0.14114,0.5408,-0.59313,-0.38657,-0.40735,0.34827,0.13574,0.15026,0.45625,0.27873,-0.7742,0.40289,-0.7551,0.15059,-0.76572,0.36087,-0.13161,0.17907,0.10764,0.51548,0.0073069,-0.92123,0.30734,-0.85513,-0.82571,-0.4602,0.59682,-0.78347,-0.77367,-0.49982,-0.81846,0.52136,-0.30094,-0.95769,-0.93817,0.13374,0.11206,0.85656,-0.79967,-0.77088,0.86418,-0.4074,0.60024,0.34351,-0.74347,0.31492,0.42116,0.95375,0.1489,0.92312
-0.35287,-0.56981,-0.78789,-0.054267,0.41736,0.47976,0.6494,0.23873,0.32878,0.66227,0.99422,0.65375,-0.71452,-0.52525,-0.27339,-0.74939,-0.18499,0.4646,0.94016,-0.21188,-0.55889,0.87521,-0.79351,0.53653,0.13485,0.66158,0.45451,-0.26717,-0.7321,-0.10853,-0.33723,-0.68399,-0.36201,-0.45136,-0.90749,0.64689,-0.16971,-0.14506,0.089892,0.84786,0.97338,0.50568,0.45237,-0.63318,-0.75694,0.75379,0.25931,0.61709,-0.56697,0.13002
0.91452,-0.71741,-0.52945,0.31692,-0.12836,-0.23003,0.93164,0.44172,0.17065,0.41745,0.41178,-0.065654,-0.24714,0.82333,-0.33437,0.23967,0.87923,0.99101,0.2065,-0.92937,-0.25289,-0.76382,-0.19946,-0.64442,-0.46773,0.99452,-0.68723,-0.80294,-0.69432,-0.62303,0.55258,0.69406,-0.96888,0.98289,-0.0056596,0.026566,-0.33642,-0.16321,0.029673,0.57628,0.31641,0.56962,0.25658,0.072574,-0.90904,0.82445,0.263,0.93548,0.50388,0.27915
0.18079,-0.77404,0.22097,0.36739,0.69236,0.31785,-0.9041,0.11446,0.83808,-0.64046,-0.069111,-0.63799,0.51726,-0.92448,0.21757,0.37533,-0.2125,0.90402,0.30789,-0.87485,-0.23617,0.047985,0.14042,-0.56944,-0.93595,-0.20925,0.698,0.62797,0.047567,0.29297,0.65566,0.96271,-0.16878,-0.2424,-0.89257,-0.59041,-0.57054,0.0019035,0.2306,0.32527,-0.51014,0.42647,-0.94406,-0.47411,0.58064,-0.94219,0.84333,-0.11844,0.36576,-0.98569
-0.75972,-0.55057,0.19162,-0.12541,-0.50184,-0.9611,-0.67627,-0.10097,-0.66533,0.15981,-0.75902,0.94735,0.72907,0.11407,-0.97818,0.52056,0.5977,-0.99077,0.33722,-0.98002,0.47224,0.5653,0.26398,0.14635,0.28017,0.79929,-0.8969,0.9982,-0.0031193,-0.53414,-0.88805,-0.026308,0.85919,0.98411,0.73743,-0.023946,0.54371,0.74578,-0.68194,-0.82622,-0.019538,-0.80255,-0.22171,-0.34598,-0.84358,-0.085462,0.96692,0.40005,0.04223,-0.0062733
-0.44656,-0.55619,0.070042,-0.95303,0.6421,0.19658,0.66121,-0.30895,0.94393,0.55579,0.50154,-0.4946,0.71324,0.34894,-0.82293,-0.54573,-0.99462,0.78057,-0.13177,0.15181,0.62088,-0.34893,-0.46046,0.27292,0.2018,0.061687,0.28852,0.27725,0.1312,-0.72339,-0.3885,0.86527,-0.33229,-0.47641,-0.33124,-0.92864,0.45492,0.86246,-0.45615,0.63924,0.27019,-0.15388,-0.67529,0.95611,-0.076708,-0.15007,0.33905,0.21836,0.27765,-0.36299
-0.70867,-0.5561,0.30402,-0.17849,0.65134,-0.33114,-0.97909,-0.8795,-0.56079,0.51809,0.9305,-0.067885,-0.73393,0.86505,0.10995,-0.55141,0.042363,-0.51223,0.019995,0.52261,0.50235,0.23775,0.48019,-0.5607,-0.61787,-0.8355,-0.11624,-0.38986,-0.11395,-0.89654,0.643,0.065308,-0.39495,0.30058,-0.15321,-0.93829,0.68346,-0.086015,0.58782,0.991,-0.88583,0.8289,-0.41042,-0.6011,0.70665,-0.024938,-0.70538,-0.21354,0.89448,0.3427
0.43828,-0.1059,0.51736,0.6807,-0.48982,-0.77189,0.31526,-0.11191,-0.9235,-0.49875,0.73347,-0.92934,0.72646,0.97697,0.93629,-0.96997,0.42278,-0.82624,-0.54004,-0.82588,-0.59481,-0.84888,-0.2525,-0.10685,0.37582,-0.1629,-0.97336,0.70822,-0.16325,0.54462,0.04051,0.39967,-0.72604,0.43395,-0.99423,0.18028,-0.69543,0.29742,-0.1278,-0.67422,-0.82733,-0.15304,0.33928,0.60498,0.30686,0.81624,-0.93318,-0.73401,-0.94824,-0.75218
0.51029,-0.38059,-0.38826,0.83265,0.46728,0.33594,0.70614,-0.55824,-0.54208,-0.31247,0.75953,-0.73275,0.18859,-0.65522,0.52889,0.17066,-0.55559,0.79506,0.10277,-0.87418,-0.896,-0.92174,0.54595,0.41837,-0.37903,-0.96219,-0.70392,0.87335,0.59648,0.41405,0.47189,0.36881,0.23537,0.43448,-0.18044,-0.58497,0.63241,0.54181,-0.73247,0.82659,-0.61537,-0.75942,0.76058,-0.085056,0.60343,0.80539,-0.57161,0.29853,-0.28208,-0.97306
0.69585,0.63642,-0.41162,0.15992,0.32768,0.08611,-0.26098,0.44952,0.41553,0.46146,-0.65268,-0.83816,0.18052,-0.99404,-0.30289,0.46555,-0.42252,0.79814,0.18056,0.28027,0.94245,-0.85113,0.48547,-0.96354,-0.147,0.80304,0.23588,-0.86782,-0.22469,0.23571,-0.17104,0.92389,0.091341,0.47282,0.38783,0.21532,-0.81278,-0.30112,-0.4543,0.21461,-0.52017,-0.45331,-0.86063,0.14492,0.97019,0.25849,-0.33057,0.11576,-0.080777,0.063973
-0.67825,0.17456,0.037006,0.6833,0.57187,-0.64522,0.44347,0.48576,-0.29476,-0.42543,-0.42454,0.56963,0.83597,-0.75359,0.83599,0.72911,0.60713,-0.47967,0.62589,0.80977,-0.9784,0.70096,0.88795,0.11494,-0.23696,-0.25008,0.8673,0.4593,0.15571,0.087868,-0.53314,0.42909,0.84814,-0.77948,-0.14479,-0.79695,0.05532,0.26762,0.31402,-0.55451,0.54128,0.32841,-0.73272,-0.62834,0.41549,0.73061,0.11673,-0.40815,-0.48289,-0.13933
-0.14614,0.7424,0.44056,-0.28665,0.50761,-0.20814,-0.22584,-0.47805,0.41898,-0.11221,0.70261,-0.63988,-0.88812,-0.67143,0.89407,-0.84231,0.78878,0.4913,0.63185,-0.17995,0.022728,0.62019,-0.80439,0.096665,0.24936,-0.97631,0.27718,0.60698,-0.28894,-0.93551,-0.70984,0.48403,-0.57699,-0.72944,-0.55533,-0.52355,-0.65827,-0.66342,0.0047422,0.38316,-0.99801,0.6699,0.10986,-0.76125,-0.25507,0.33458,-0.20394,-0.90174,-0.31239,0.36387
0.60331,0.47095,0.82279,0.7029,0.99466,-0.015672,0.86198,-0.99214,0.17739,0.67966,-0.07488,-0.34801,0.40935,0.14334,-0.33537,-0.13479,0.62323,-0.20324,-0.57005,0.56339,-0.7091,-0.36453,-0.3613,-0.98054,0.5691,0.0023,0.83987,-0.84253,-0.088894,0.14292,-0.44315,-0.43552,0.66405,0.17123,0.75124,0.67385,0.27134,-0.45559,-0.22484,0.40603,-0.90047,-0.26625,0.79662,-0.47859,0.40854,-0.29742,-0.90268,0.4156,0.79947,0.96141
-0.58723,0.4042,-0.35238,0.78213,0.5408,-0.12423,-0.055771,0.57139,-0.78249,0.96731,0.99431,-0.40905,-0.004043,0.13484,-0.49478,0.60958,0.31715,0.37613,0.40414,0.011988,0.074981,0.44554,-0.99878,-0.095456,0.18925,-0.11323,0.48158,-0.063887,-0.20623,0.9192,-0.43728,0.74036,-0.23209,0.028828,0.70553,0.82854,-0.70691,-0.56109,-0.25548,0.89912,0.63199,0.88428,-0.97787,0.236,0.60964,-0.55164,0.0014717,-0.74602,0.71559,-0.32555
0.31387,0.70866,-0.54994,0.25639,0.76246,0.27073,0.048982,0.97402,0.29365,0.22911,-0.43781,-0.79335,-0.26838,0.51533,-0.10262,0.019132,0.97449,-0.99532,0.76049,-0.47519,0.791,0.6964,-0.0041397,-0.32779,0.30315,0.70489,-0.24269,0.37543,-0.70396,0.65947,-0.16329,-0.75459,0.54287,0.27028,-0.35742,-0.77078,0.84287,-0.17144,0.74032,-0.9155,-0.72952,-0.68709,-0.012307,-0.0059822,-0.82309,-0.65796,-0.11088,0.79751,0.15904,-0.23375
-0.41968,-0.73216,-0.76776,-0.20165,-0.29889,-0.69454,-0.92904,0.217,0.46223,-0.6469,-0.28364,0.88456,0.99643,-0.77901,0.48038,-0.19001,0.34649,0.68088,-0.46955,-0.2416,-0.092161,-0.87675,0.93674,-0.30513,0.17886,0.0017257,-0.27717,-0.83141,-0.68157,-0.2159,-0.93657,-0.21721,-0.5671,0.82738,-0.23614,-0.64916,0.51457,-0.43347,0.28898,-0.76969,-0.35992,0.63231,-0.088776,0.97641,-0.86157,-0.9919,-0.38399,-0.88889,-0.93365,0.49329
0.3716,-0.743,-0.35167,-0.49804,0.61968,0.85862,-0.55656,-0.28116,0.72676,-0.87181,0.48001,-0.58697,0.90999,0.47076,-0.8057,-0.06861,-0.59544,0.58335,0.6846,-0.054917,-0.66264,0.32689,-0.95192,-0.1275,-0.68169,-0.77561,0.85332,0.88841,-0.95853,0.62286,-0.14622,0.54503,0.76724,-0.28341,-0.52752,0.85507,0.85803,-0.096717,-0.091081,0.28205,-0.59001,0.39901,0.70664,-0.71387,0.54633,-0.022596,0.71933,-0.47196,-0.45465,0.43764
-0.38242,-0.085139,-0.91873,0.99258,0.94065,0.74033,0.61633,0.92865,-0.9547,0.37139,0.09324,-0.13769,0.026643,0.066277,0.56382,-0.26286,-0.71086,-0.45158,0.61007,0.43955,-0.24829,0.64589,-0.00013964,-0.22875,-0.91573,0.5828,-0.1841,-0.75673,-0.067234,0.82184,-0.89309,0.66839,-0.10585,-0.14382,0.87127,0.77986,0.67457,0.49514,-0.97224,0.55504,-0.6447,0.2879,0.29174,-0.29201,0.73005,-0.038735,0.07937,-0.84422,0.50794,0.96822
0.8854,-0.42099,-0.34046,0.27455,-0.52586,-0.46882,-0.77861,0.74644,-0.6976,-0.54013,0.14289,-0.89908,0.34056,-0.071858,-0.45864,0.12407,-0.59754,0.69501,-0.26836,0.15894,-0.46473,-0.79128,-0.16751,0.2551,-0.72595,0.86965,-0.96781,0.40905,0.06167,0.6211,0.87518,0.016759,0.78846,0.59297,-0.66938,0.96745,-0.9739,-0.544,-0.50081,-0.90386,-0.63364,0.14191,-0.3849,0.057783,-0.2925,-0.44528,-0.29134,0.86352,0.55762,-0.1274
-0.52218,0.34174,-0.78267,0.50884,-0.15467,0.018103,-0.11868,-0.12973,0.050388,0.32902,-0.85229,0.35159,-0.99622,0.18885,-0.74277,0.10471,-0.80178,-0.39635,0.46407,-0.064868,0.97213,-0.81254,0.65436,0.41379,-0.43467,0.71178,-0.82398,0.61592,0.09356,-0.35552,0.88722,0.99653,-0.28145,-0.40677,0.25525,0.38722,-0.35355,-0.86792,0.31004,0.36821,0.91541,-0.9975,-0.8846,0.37013,0.36929,0.53396,-0.82842,-0.98534,0.36806,0.10894
0.39756,-0.53667,0.17004,0.75959,0.99293,-0.019109,0.35302,-0.69345,-0.54687,0.68845,-0.83352,-0.77868,-0.014091,0.96642,0.89829,-0.63475,0.24663,-0.71525,0.13772,-0.48249,0.79792,0.19515,0.43743,-0.5203,0.51385,-0.68999,0.4118,0.041999,-0.91566,0.31493,0.14303,0.32853,0.38877,0.19388,-0.71976,0.46228,-0.41842,-0.86061,0.0050953,-0.14965,0.12046,0.69807,-0.75201,0.031649,0.20886,0.51082,-0.18674,-0.74572,0.69304,0.80471
-0.72016,-0.58195,0.77217,-0.073593,0.22355,-0.91693,-0.079227,0.30273,0.68333,0.47009,-0.60497,-0.13202,0.062524,-0.26964,0.63738,0.34582,0.35922,0.39405,-0.36606,0.28671,0.26132,0.28873,-0.91605,0.38669,-0.16996,-0.8374,0.79882,0.11945,0.62312,-0.78009,0.54106,-0.8092,0.17725,0.66775,-0.68701,0.86837,-0.76975,-0.51905,-0.17269,0.53515,0.54736,0.50679,0.88315,-0.81851,-0.60902,-0.40043,-0.0713,0.99829,0.29178,-0.76711
-0.10964,0.21974,0.79713,-0.45098,-0.96301,-0.19068,-0.95916,-0.67898,-0.13993,0.799,0.79362,0.66949,-0.38825,-0.44909,-0.74699,0.28479,-0.36032,-0.58543,-0.34665,-0.92341,-0.37934,-0.85785,0.52914,-0.60986,-0.7087,0.25652,0.65986,0.84305,0.30749,0.65452,-0.4182,0.38974,0.6369,-0.82541,0.72457,0.43524,0.70056,0.62184,0.52987,-0.27699,0.69147,-0.78307,0.74133,0.91779,0.29729,-0.032743,-0.55527,-0.35417,0.50349,-0.84583
0.29209,0.22464,0.070835,-0.051928,0.91641,-0.24307,0.38092,-0.36093,-0.40122,-0.51153,0.34702,-0.80644,0.71968,-0.34409,0.46224,0.6326,-0.63537,-0.6254,-0.20559,-0.87872,0.11787,0.91342,-0.63395,-0.12437,0.46803,-0.80609,-0.02993,0.92708,0.18592,0.14363,-0.81337,0.21505,-0.67037,0.17479,-0.605,-0.047194,0.9578,0.86265,-0.49783,-0.60275,-0.044622,0.78162,-0.15749,-0.10742,-0.34176,-0.20155,-0.86095,-0.95718,0.37245,0.68527
-0.82976,0.99004,0.51033,-0.94015,-0.89034,-0.66622,-0.54559,-0.70232,0.15434,0.76725,0.21468,0.56884,-0.86758,0.77564,-0.52178,-0.47006,0.82643,-0.25415,-0.79743,0.47931,0.54841,-0.77314,0.19212,0.30862,0.339,-0.93313,-0.45023,-0.88817,0.44142,-0.45369,0.7429,-0.25658,-0.66682,0.58338,0.92157,0.17867,0.062206,-0.3082,-0.49782,0.80839,-0.95121,-0.28584,-0.92538,-0.34582,-0.15217,-0.24268,0.44601,-0.63402,-0.96037,-0.35408
0.024028,0.97955,-0.16656,-0.54291,0.9371,0.699,-0.56461,-0.67765,-0.3105,-0.90874,-0.8967,-0.19553,0.068837,0.55153,-0.77674,0.59833,-0.76718,0.42985,-0.45757,-0.95636,-0.83566,-0.99138,0.19906,-0.60942,0.27094,-0.35278,-0.070792,-0.41218,-0.20604,-0.80997,-0.30041,-0.96149,0.12867,-0.89285,-0.27153,0.42768,0.10379,-0.14758,-0.010557,-0.78836,-0.35031,-0.69882,0.55621,-0.92746,0.61886,0.015892,-0.57323,-0.55156,-0.52598,-0.067768
-0.50165,0.44568,-0.95174,0.080722,-0.16791,0.30555,-0.83981,-0.49581,0.71402,-0.014208,0.015691,0.29112,-0.98738,-0.53665,-0.53842,-0.37712,0.94947,-0.15095,-0.93882,0.29821,0.45563,0.26155,0.69464,0.54908,0.085692,0.2901,0.40604,0.96886,-0.57012,-0.55,0.32416,0.86273,0.14526,-0.39269,-0.99091,-0.7773,0.073167,-0.016723,0.95892,0.14868,-0.5804,0.58076,-0.35724,0.026646,0.41821,0.53536,-0.40597,0.91154,-0.34286,0.42538
-0.24943,0.65679,-0.59966,-0.20088,0.70204,0.037537,0.081084,-0.034965,-0.42686,0.16087,-0.39809,0.22142,0.32401,0.30124,0.63488,0.43057,-0.58647,-0.40234,0.32379,0.77609,-0.09468,0.70377,0.71876,-0.87046,-0.49586,0.16855,0.52602,-0.41987,0.2534,-0.72419,-0.28149,-0.55885,0.74906,-0.89015,0.71136,0.62966,-0.34786,0.74389,0.45685,-0.51529,0.73329,0.067199,0.26144,0.61062,-0.39922,-0.22633,0.15201,-0.73613,-0.29791,-0.094417
0.17938,-0.26889,-0.54681,0.51092,0.77497,0.44198,0.18827,-0.14382,-0.11809,0.8979,-0.51892,-0.97108,0.077659,-0.93628,-0.60602,0.82652,0.83275,0.35519,0.81291,0.79959,-0.71041,-0.10774,-0.69371,-0.93899,-0.8522,0.34435,0.98312,-0.84521,0.64019,-0.62421,-0.67001,-0.81934,0.19591,-0.46348,0.69563,-0.03535,0.1041,0.35635,-0.72405,0.44246,-0.26093,-0.38619,0.41687,0.87197,-0.80139,0.28517,0.52294,-0.30052,-0.94911,-0.37432
0.99037,-0.70787,0.11634,0.66391,-0.036477,-0.83751,-0.8512,0.78993,0.53278,0.26331,0.55199,0.17073,-0.10882,0.95023,0.75656,0.40712,0.33816,-0.32982,-0.24868,-0.41184,-0.82428,0.74838,0.47097,0.99635,-0.22564,0.58538,0.4396,-0.28132,0.1407,-0.69426,0.22573,0.093254,0.0033103,-0.39366,0.081422,0.36711,-0.64139,-0.0071736,0.23985,0.24695,-0.35289,-0.17096,0.77881,-0.030505,-0.29824,-0.38648,0.64252,0.84134,-0.22313,-0.95655
-0.9233,0.56498,-0.84572,0.11997,-0.81951,0.85537,-0.63559,-0.42486,-0.23397,-0.054938,0.78503,-0.15717,0.56825,-0.77042,0.5207,-0.82622,-0.55095,0.89627,-0.48435,0.62557,0.79391,0.63837,0.72724,0.38757,0.90935,-0.23961,-0.08605,-0.3413,0.40894,-0.4442,-0.83751,-0.13381,-0.39242,-0.042764,-0.048448,0.787,0.067318,0.72619,0.48209,-0.089845,0.096743,0.46456,-0.13521,-0.0603,0.72831,-0.17487,-0.028001,-0.2086,-0.61874,-0.98883
-0.46863,0.29289,-0.16034,0.1314,-0.01727,-0.93196,-0.17478,-0.3998,-0.52239,-0.75683,-0.89386,-0.92932,-0.67887,-0.71522,0.75065,0.015676,-0.69774,-0.7706,0.75123,0.13499,-0.091936,-0.6452,0.89879,0.89674,-0.95165,-0.84141,0.027733,0.25884,0.44674,0.34255,0.89569,0.058513,-0.27443,0.46188,-0.83004,0.38348,-0.52906,-0.036208,-0.30853,0.56657,-0.57937,-0.24218,0.92668,0.68861,0.76071,-0.75756,-0.060164,0.7558,-0.15506,-0.86609
-0.39562,0.98297,0.15528,0.19693,0.25447,-0.547,-0.66445,0.12962,-0.21218,-0.44058,0.11327,0.31852,-0.69086,0.43827,-0.94608,0.55236,0.43489,0.82663,0.49234,0.86609,0.77743,-0.77231,-0.23353,0.77583,0.18269,-0.13162,-0.28958,-0.17279,0.27814,-0.78638,0.25081,0.79104,0.65422,-0.20162,-0.24071,-0.9807,-0.097198,-0.90059,-0.3815,-0.32463,-0.79323,-0.33613,0.093254,-0.75751,0.96096,0.43599,0.0010179,0.19999,-0.38072,-0.90839
-0.58771,0.55007,0.68205,0.13191,0.21039,-0.00031014,0.7648,0.53498,-0.60833,0.53843,-0.6973,0.55734,0.62468,-0.3442,-0.52531,0.0065008,-0.80337,0.84387,-0.46696,0.59702,-0.18939,-0.093193,-0.81306,0.92473,0.76875,0.57095,-0.030847,0.15677,0.091792,-0.012417,-0.44085,-0.85982,0.044758,0.040012,0.047055,-0.39485,-0.51297,0.18038,-0.55007,-0.69564,-0.45512,-0.6703,0.37215,-0.69747,-0.13134,0.045619,0.51586,0.047593,0.27037,0.0024361
0.2674,0.94089,0.3487,-0.044502,0.15888,-0.71543,0.82093,0.81286,-0.1186,0.5016,0.97867,-0.64701,0.95576,0.35585,-0.17976,-0.88293,0.12099,-0.97242,-0.27324,-0.44666,0.10265,0.86523,-0.60207,-0.79868,0.16381,-0.39024,0.42245,-0.044973,-0.74494,-0.87442,-0.00092373,-0.84573,0.12516,-0.75065,0.9417,0.094916,0.71102,-0.0038286,-0.64868,0.24787,-0.22284,-0.24742,0.020639,0.32914,-0.62041,-0.22681,-0.41321,-0.81512,-0.65737,-0.51194
0.43116,-0.70828,0.6223,-0.31837,0.34526,-0.49569,-0.13866,-0.26786,0.2368,-0.96383,0.052421,0.84017,-0.42972,-0.79653,-0.17691,0.33599,0.052413,-0.93277,0.54904,0.99688,-0.82712,0.2972,-0.27825,0.80121,0.43263,0.46806,0.63631,0.40609,-0.96649,0.068388,0.39859,-0.6057,0.49246,0.32021,-0.12267,0.23654,-0.89859,0.87662,-0.93495,-0.44684,0.41044,0.17869,-0.87869,0.63477,-0.25752,0.0067597,0.62816,0.91264,-0.7898,-0.27505
0.071006,0.43612,-0.84829,0.62342,-0.21843,0.8163,-0.73849,-0.38815,-0.53629,0.69691,0.07301,-0.34707,0.31461,0.11974,-0.52485,-0.18064,-0.56175,0.062765,0.70042,0.45354,0.55418,-0.93915,0.84828,0.059916,0.43316,-0.79961,0.47492,0.8454,0.14888,0.098831,0.5869,0.28095,0.31647,-0.15059,0.6239,0.070041,-0.6147,-0.98933,-0.74332,-0.96805,-0.1409,-0.31276,-0.35753,0.62662,-0.22675,-0.85804,0.4058,0.075381,-0.39344,0.72077
-0.85077,-0.42505,0.14211,0.59615,-0.92009,0.075404,0.013868,0.20765,0.74287,0.80469,0.42495,-0.43564,0.61348,-0.75446,0.75192,-0.9979,0.33397,0.47531,0.33634,-0.42678,-0.74339,0.98943,-0.12185,0.63842,-0.2417,-0.65447,0.89612,-0.38955,-0.19071,0.6714,0.020885,-0.35935,0.98127,0.7152,0.79218,-0.95726,0.78824,0.9261,0.61134,0.94606,0.18776,-0.45489,-0.3201,0.74503,-0.59898,0.19204,-0.98962,0.62207,-0.36778,0.84898
-0.69328,0.20613,-0.78819,-0.43551,-0.82305,0.717,0.59164,-0.021569,0.46284,0.35208,0.63747,0.40405,0.64007,-0.49819,-0.82183,0.34856,-0.095708,0.38692,-0.44677,0.1831,-0.77108,0.14301,-0.24577,0.5014,-0.69146,0.85023,-0.29789,0.072809,0.83585,-0.086009,-0.82707,-0.79395,0.37611,0.91723,0.66007,0.072641,0.55265,0.6562,-0.70602,-0.77144,-0.37612,-0.49864,0.13917,-0.17755,0.665,0.27123,-0.6846,0.084188,-0.92849,0.88629
0.36732,-0.063732,0.43098,-0.57559,0.98281,0.046505,0.19861,-0.51114,-0.3601,-0.9188,0.7482,0.87767,-0.38972,0.14035,0.33168,-0.077235,-0.01926,0.092671,-0.57049,0.49823,0.13018,0.63058,-0.050397,0.77636,-0.685,0.57684,0.33575,0.34971,-0.76742,0.30962,0.34304,0.12093,0.19007,-0.51104,-0.019914,-0.96284,-0.73158,0.50988,0.94864,-0.54254,0.45542,0.7134,-0.55645,-0.76745,-0.29431,-0.31884,0.31807,0.39933,-0.47847,-0.97694
-0.33244,0.13727,-0.36477,-0.499,-0.47421,0.69912,0.36079,0.74482,0.62355,-0.0091619,0.24342,0.6603,-0.85158,-0.98223,-0.50485,0.91532,-0.064487,-0.34986,0.071894,-0.099528,0.93634,-0.36837,-0.83072,0.62684,-0.074877,0.55765,0.77633,0.63007,0.10524,0.95005,-0.39084,-0.14235,0.51434,0.51418,0.53485,0.64475,-0.28615,0.50355,-0.61585,-0.77708,-0.31137,0.065452,0.031786,-0.94807,-0.13542,-0.54374,0.71631,0.97255,-0.33379,0.8593
0.68397,0.8307,0.37717,-0.57309,-0.9127,-0.52319,-0.066377,0.062654,-0.082289,0.37316,-0.97879,-0.089991,0.23519,-0.063073,-0.77543,-0.22684,0.54774,0.15773,0.27643,-0.9178,-0.15268,-0.77463,-0.044209,-0.55447,-0.92997,0.75461,0.37865,0.42261,-0.50982,0.44393,0.90264,0.4201,0.14635,0.94158,-0.97342,0.50251,0.093273,-0.64007,0.012607,0.94698,0.9473,0.30882,0.79085,-0.71947,-0.3244,-0.26834,-0.21301,-0.81974,0.93431,-0.44746
0.89598,-0.16675,0.75312,0.10717,0.47651,-0.76836,0.42406,0.4633,0.35194,-0.92626,-0.55546,-0.18884,-0.72768,-0.41191,0.20576,-0.47965,-0.27476,0.79472,-0.91992,0.91138,-0.0021984,-0.88277,0.54257,-0.69659,0.45299,0.81944,0.52555,0.54968,-0.64793,0.29331,0.082517,0.31503,0.59621,0.37488,-0.3031,-0.058249,-0.72828,-0.38377,-0.55711,-0.69244,-0.17417,-0.47227,-0.55958,0.35386,-0.70141,-0.92593,0.38401,0.89876,-0.14085,-0.81187
0.50337,-0.82244,-0.99359,0.051455,-0.29262,0.29433,-0.4216,-0.19033,-0.42443,-0.49885,-0.89477,0.97752,0.61831,-0.48132,0.93827,-0.58384,0.43078,0.7803,0.87468,-0.033787,0.57287,0.75778,-0.70039,0.52628,0.50375,0.86077,0.10464,0.71856,0.85502,-0.91295,-0.71895,0.89963,0.84659,0.19638,-0.57154,0.54055,0.12241,0.87327,-0.018868,0.3898,-0.040817,0.79109,-0.10662,0.68273,-0.54417,-0.64108,0.96216,-0.90268,0.45739,0.63349
-0.94562,0.53493,-0.14113,-0.39031,0.5258,-0.78487,-0.94295,0.44401,0.46104,-0.36711,0.028911,-0.44228,0.95577,0.038958,0.49162,0.2693,-0.68534,-0.39231,0.53942,-0.83359,0.16804,-0.84692,-0.39289,0.93522,-0.09882,-0.19199,-0.86498,-0.44843,-0.75293,0.19434,0.82709,0.11002,0.54248,-0.053617,0.25916,0.15819,-0.15679,-0.4488,-0.14163,-0.75431,0.28414,0.93475,-0.026134,0.20869,0.24354,-0.7633,0.83712,0.89929,-0.61696,0.27475
0.4882,-0.25578,-0.32213,0.66769,0.56822,-0.42891,-0.0023084,0.40762,0.46844,-0.66638,0.78567,-0.4001,0.80085,0.0021316,-0.77573,-0.29132,-0.0028298,-0.47125,-0.21278,-0.89357,-0.060145,0.010118,0.96978,0.8104,-0.42627,-0.4217,0.14987,-0.6357,0.60428,-0.016527,-0.88552,-0.81054,-0.46112,-0.7497,-0.3376,-0.36122,-0.2458,0.71424,-0.98798,0.43605,0.54327,-0.12497,0.61943,-0.65949,0.55962,0.38568,0.030817,-0.61378,-0.52795,0.14249
-0.32649,-0.022994,0.57143,-0.84084,-0.94342,-0.80317,-0.60938,-0.40527,0.41586,-0.080748,0.15925,-0.13226,-0.63449,-0.87088,-0.64869,-0.72926,-0.6068,0.33527,0.2755,0.26177,-0.053832,-0.65789,-0.20769,-0.61066,-0.71534,0.53742,-0.60122,-0.30141,-0.32031,-0.63551,-0.37408,-0.14144,0.89513,-0.053221,-0.60005,-0.27141,0.15077,-0.019152,-0.60813,0.81592,-0.48069,0.7546,0.9929,0.1357,-0.53445,0.4483,0.26737,-0.59673,0.17301,-0.99843
0.6027,-0.41427,0.54224,-0.19819,0.60676,-0.42742,0.92765,-0.83884,-0.58107,0.83568,0.2561,-0.12035,0.84406,-0.030338,-0.353,-0.56655,-0.63377,-0.38411,0.12903,-0.39027,-0.3211,-0.818,0.32741,-0.69682,-0.012591,0.88776,0.036388,0.85061,-0.78728,0.78759,-0.54342,-0.38,0.7268,0.36946,0.72555,-0.66547,0.70872,-0.73519,0.51745,0.47724,-0.63528,0.71173,-0.16664,0.68963,-0.95286,-0.9994,-0.23966,-0.32363,0.27801,-0.40286
-0.66619,0.22436,0.3169,0.80001,0.82708,0.82479,0.52619,0.23831,-0.65768,-0.90197,-0.71141,-0.041447,-0.72688,0.63859,-0.82626,0.21219,0.35437,0.26902,-0.29638,0.48046,0.25562,-0.83461,0.54377,-0.063144,-0.26978,-0.44121,0.9029,-0.23968,-0.28755,-0.69376,0.73285,0.45936,0.17848,-0.16231,0.43538,-0.26821,0.69106,0.21765,-0.36158,-0.53573,0.95608,-0.66972,-0.892,-0.22472,0.17849,0.33172,-0.81845,-0.95364,-0.14413,0.75912
0.27338,0.69832,-0.21873,0.74935,0.91063,0.027666,0.22559,-0.063265,0.067482,-0.43614,0.49723,-0.62089,-0.91329,0.31933,0.53025,-0.1124,0.79414,0.12062,-0.57015,0.12586,-0.74926,-0.49103,0.22762,0.81931,0.56175,-0.25774,-0.76346,0.020548,0.72836,-0.081551,0.74245,-0.60548,-0.69714,-0.29835,-0.33918,0.72264,0.57831,0.44732,-0.29544,-0.56732,0.59919,-0.96302,0.78576,0.22867,-0.68977,0.89971,-0.53694,-0.27117,0.28297,-0.12116
-0.71352,0.27719,-0.5241,-0.54958,0.87359,-0.47034,-0.2274,0.90568,0.41772,0.63027,-0.43868,-0.0052389,0.34558,-0.6117,0.030551,-0.039146,0.20452,-0.80059,0.99229,0.42493,0.11541,0.18194,-0.6441,-0.61967,-0.72115,-0.45357,0.93722,-0.17148,-0.27955,0.90183,0.72435,-0.68579,0.49233,-0.59158,0.89202,-0.91074,-0.69966,0.1614,0.34402,0.43307,-0.34785,-0.19766,0.81146,0.022882,-0.73443,0.32795,-0.83181,-0.023076,0.77775,-0.54142
0.64022,-0.0042502,-0.75474,-0.53144,0.77182,-0.31508,0.8228,-0.32953,-0.99797,0.78623,0.73756,0.75446,-0.7446,0.91774,-0.66547,0.77399,-0.48025,-0.23715,0.40922,0.29133,0.83574,-0.44329,-0.96098,0.33764,0.49282,-0.052922,0.72125,-0.42433,0.8641,0.18572,-0.53022,-0.54563,0.17217,-0.6093,0.18009,0.92406,0.23226,0.33018,0.20059,0.57515,-0.33396,-0.31406,-0.75104,-0.15586,0.20442,-0.95102,0.97568,-0.64687,0.30983,0.46314
-0.64304,0.84328,-0.58115,0.86611,0.67219,-0.017169,0.071702,0.38718,-0.61803,0.58055,0.60425,-0.62151,-0.56146,0.90787,0.16135,-0.9748,0.16485,0.13523,0.050523,-0.38629,-0.32536,-0.53369,-0.60449,-0.10025,0.24121,0.92109,-0.88726,0.44884,0.50568,-0.49541,-0.28185,-0.58019,0.51231,-0.58415,-0.13527,-0.96487,-0.64808,0.73132,-0.1752,-0.18629,-0.58729,0.50248,-0.57803,-0.7994,0.44194,-0.89954,-0.076228,0.66186,-0.23917,-0.67159
-0.64125,-0.30563,0.24445,0.30095,0.82154,0.5837,0.49919,-0.070399,0.47203,-0.95472,-0.023245,-0.98714,0.31771,0.81379,-0.57269,0.15698,-0.046083,-0.89966,-0.17204,0.08716,-0.34461,-0.58852,0.098718,0.60211,0.81551,-0.79649,0.62036,0.46464,0.28786,0.54051,0.0029022,-0.20561,-0.87382,-0.76247,-0.5902,-0.024271,-0.073125,-0.0047307,0.59969,0.61915,0.36193,-0.74409,0.078275,0.55162,0.46934,-0.15481,0.53182,-0.95012,-0.39194,0.13131
-0.69665,-0.95584,0.18473,-0.43921,0.13609,-0.4864,-0.18426,-0.49318,0.99109,-0.84154,0.94714,-0.56739,-0.35483,-0.23786,-0.68876,-0.86712,0.73664,-0.040039,-0.58087,0.59501,0.15319,-0.36636,-0.37904,0.22098,0.43575,0.081289,-0.45142,-0.061205,0.81585,0.82577,0.095585,-0.99337,-0.1731,0.25768,-0.62203,-0.23605,-0.91164,-0.41959,0.37868,-0.87737,-0.60681,0.92066,0.015922,-0.47779,0.76859,-0.71135,0.49458,0.33467,-0.40665,0.31074
-0.13076,-0.90337,0.9331,-0.76449,0.76208,0.23732,-0.31773,-0.045744,-0.60574,0.84174,0.054323,0.085684,0.0049573,0.28358,0.19849,-0.41511,0.35157,-0.95341,0.61059,0.35614,0.37637,0.88168,-0.59638,-0.15254,-0.76489,-0.38494,-0.96363,-0.27822,-0.33139,-0.19588,-0.039845,0.28823,0.77988,0.92609,-0.97842,0.37312,0.68758,0.99622,0.93218,-0.63514,-0.44541,-0.59334,0.10119,-0.88836,0.69552,-0.33496,-0.059936,0.45549,0.77286,-0.91808
0.76,0.5923,0.029681,0.41708,-0.57876,0.99204,0.4938,0.22372,-0.53422,0.02828,-0.56488,0.058135,0.068848,0.64063,-0.41697,-0.02598,0.21486,-0.12044,-0.19254,0.94781,0.25215,-0.26563,-0.0011031,-0.07474,0.74135,-0.6967,-0.29113,0.68065,-0.20123,0.86344,0.67224,0.10973,0.75227,0.94795,0.69387,0.1147,0.070305,-0.010631,0.77759,-0.44969,0.27189,0.036246,-0.96248,-0.27523,-0.44957,-0.44427,-0.10352,-0.88493,-0.69927,-0.66831
-0.00096015,0.94178,0.88222,0.15274,0.57156,-0.97295,0.61009,-0.10247,-0.32962,-0.91507,-0.60683,0.50804,-0.081812,-0.16608,-0.030434,-0.64756,0.76046,-0.5153,-0.79421,0.32049,0.85953,-0.92764,0.21832,0.87539,-0.86808,-0.15475,0.26513,-0.67665,0.39332,0.34503,-0.60371,0.83865,0.87977,0.76889,-0.43908,0.77692,0.84457,0.66442,0.22374,0.90757,-0.79603,0.39688,0.51236,-0.59053,-0.014387,0.93915,0.60757,0.21431,0.80989,-0.70514
0.13603,0.48331,-0.5381,-0.7447,-0.16098,-0.082475,-0.21201,-0.82776,-0.72194,0.58125,-0.96462,0.28914,0.03736,0.43564,-0.59848,-0.0078925,0.61146,0.62287,0.74664,-0.5069,-0.33724,-0.41502,0.61556,0.82527,-0.99731,-0.35158,-0.27609,-0.25438,-0.51169,0.86006,-0.72734,0.068102,-0.32893,0.48177,-0.19631,0.13885,0.46356,0.4765,0.92983,-0.68107,-0.83863,0.5447,-0.11851,0.36775,-0.25905,-0.46836,0.19902,-0.98233,0.031378,0.42673
-0.82488,-0.44243,0.11824,-0.67021,0.26197,0.041784,0.55018,0.94572,-0.32696,0.45623,-0.31134,0.36496,0.14433,0.66461,-0.80193,0.24369,0.19806,-0.12137,0.23177,-0.098397,-0.16625,0.69895,0.23085,0.2112,-0.38667,0.11281,0.026522,0.23548,-0.36754,0.45975,-0.93305,-0.68892,-0.81296,0.51796,0.43371,0.41427,-0.21333,0.013372,-0.063055,-0.28198,0.48542,0.3283,-0.29974,-0.75723,0.52988,-0.19227,-0.14623,0.30215,-0.32616,0.72398
-0.11209,0.42816,-0.832,0.44388,0.99024,0.75463,0.015503,-0.60267,0.13229,-0.8092,0.6706,0.42388,-0.23152,0.33879,-0.3872,0.46395,-0.62987,0.77561,0.24771,-0.49612,-0.32837,-0.053002,-0.18876,0.75882,-0.20736,-0.63112,0.99733,-0.61335,0.41459,0.18363,0.56765,-0.63212,-0.0074516,0.68169,0.70168,0.012979,0.22818,0.93791,0.18462,-0.33713,-0.33012,-0.41389,0.76774,-0.0069784,0.60913,-0.46354,-0.37562,-0.11714,-0.90108,-0.042672
0.40914,-0.80378,0.64903,-0.94439,-0.71438,-0.69748,-0.21149,-0.8206,-0.078013,0.57897,-0.45067,-0.040168,0.71216,0.11399,-0.5946,0.97571,0.86348,-0.79133,-0.40604,0.521,-0.52444,0.025447,-0.057755,-0.35383,-0.42816,-0.57019,0.43716,-0.082508,0.058589,-0.77869,0.58776,0.98989,-0.81165,-0.46686,-0.10929,0.29528,0.21675,-0.8882,-0.23575,0.64382,0.2325,0.92829,0.91973,0.30776,0.1708,0.56073,-0.38063,0.22096,0.67934,-0.023995
0.96361,0.82796,-0.64913,-0.46786,-0.26226,-0.62964,-0.23437,0.086063,0.78309,0.41432,0.31513,-0.43204,-0.28875,0.91963,0.69394,-0.19592,0.31956,0.87381,0.36792,0.044423,-0.19955,-0.57134,-0.98539,0.54401,0.29811,0.13052,0.74979,0.48924,0.9601,0.57156,0.30661,0.58354,0.73943,-0.35357,0.4266,-0.61126,0.79233,-0.78727,0.60451,-0.69055,-0.049635,-0.27412,0.16021,0.06274,0.35973,0.42076,0.43792,-0.69408,0.83873,0.033597
-0.28378,0.56934,0.12705,0.92313,-0.96632,0.85971,0.76686,-0.67522,-0.7652,-0.22037,-0.66046,-0.76359,0.71718,0.7894,0.39621,0.76912,0.38815,-0.253,-0.15043,-0.78277,0.90781,0.84748,-0.12679,-0.29603,-0.47954,0.81729,-0.14695,0.60484,-0.26904,0.22661,0.38404,-0.18246,-0.78591,0.92789,0.77669,-0.049344,0.93993,0.48574,-0.17348,0.060267,0.49882,-0.63765,0.023979,0.90975,-0.55059,0.51524,0.37448,-0.7083,0.88155,-0.28997
-0.76936,-0.69637,0.627,-0.95086,0.03138,0.56832,0.46078,-0.99045,-0.78764,0.81227,-0.41074,0.071326,-0.15988,-0.74815,-0.30562,-0.61927,0.60834,-0.67697,0.46178,0.3726,-0.61354,-0.66898,-0.67927,-0.3764,0.97209,0.3998,-0.070818,0.37626,0.23968,-0.29481,-0.91571,-0.55065,0.27967,-0.33864,0.26269,-0.8017,0.14914,-0.81513,-0.4633,-0.23362,0.25342,0.18525,-0.37027,0.4229,-0.57604,-0.53073,0.1066,0.95173,-0.39527,-0.60635
-0.47975,-0.15783,0.89805,0.5915,0.23545,-0.68075,0.5325,0.09187,-0.21622,-0.74531,-0.25878,0.094244,-0.5392,-0.093569,0.32122,0.33359,-0.24065,-0.97041,0.26589,0.32511,0.2164,-0.42781,-0.061607,0.61853,0.34582,0.77092,-0.73175,-0.29694,0.76054,0.24663,0.86926,-0.2199,-0.32676,0.68813,0.97343,0.90212,-0.32018,0.26429,-0.48343,0.88206,-0.39888,-0.023655,-0.35147,0.69774,0.37194,-0.14554,0.75822,0.45961,-0.2741,-0.35933
0.99056,0.90969,0.29916,0.56843,-0.70595,0.87346,-0.021863,0.26132,0.39349,-0.079316,0.29786,0.64537,0.44664,-0.39327,-0.23124,-0.021221,-0.50029,-0.2673,0.82965,0.81149,-0.69087,-0.99198,0.63288,0.049786,0.3345,0.48639,-0.8165,0.068996,0.065868,-0.05103,0.19751,-0.13825,-0.36852,0.69009,-0.65225,-0.26502,0.75945,-0.038073,0.54967,0.90314,0.85998,-0.50757,-0.85572,-0.070857,0.78008,-0.69056,-0.87072,-0.95879,-0.38423,0.56941
0.675,-0.62103,-0.60273,-0.80562,-0.78515,-0.86922,-0.18441,-0.21378,0.77705,0.054566,0.13556,0.38371,-0.81288,-0.74608,0.089297,-0.060233,-0.343,-0.14013,-0.4684,-0.020389,-0.48654,-0.12751,0.094189,-0.27277,0.57871,-0.11064,-0.036493,-0.39818,-0.75057,0.25188,-0.72116,-0.85361,0.70714,-0.11167,0.25618,0.71368,0.91353,-0.032584,0.41423,0.98865,-0.020288,0.88547,-0.13103,0.66383,-0.49376,-0.96443,0.78261,-0.35558,-0.20847,-0.87742
0.50014,-0.45317,-0.83503,0.42874,0.91509,-0.23897,0.74841,0.13497,-0.90759,0.2281,0.024474,0.41617,-0.69354,-0.35914,-0.71947,-0.23028,0.95645,-0.14689,-0.98364,-0.073318,0.59918,-0.23104,-0.91728,0.2782,-0.86119,-0.76279,0.86058,0.95495,0.62075,0.28248,0.53417,0.61545,0.13811,0.86171,0.36925,0.95819,0.48699,-0.15487,-0.13502,-0.24572,-0.77867,-0.028336,0.18752,0.10407,0.69174,0.12035,0.25069,-0.26035,-0.69157,0.20156
0.5291,-0.89246,-0.26677,-0.90703,0.80193,0.38407,-0.50475,-0.83349,-0.41564,-0.89644,-0.87916,-0.63299,0.81013,-0.2612,0.32629,-0.70511,-0.50949,-0.96575,0.45574,0.32683,-0.53249,0.98408,-0.44041,-0.61197,-0.51351,0.87854,-0.10578,-0.11469,-0.11536,0.77537,0.23183,-0.82923,-0.038689,-0.6798,-0.66493,-0.38566,0.83933,0.16512,-0.26962,-0.23794,0.63283,0.82566,-0.30899,-0.27282,-0.74808,-0.20253,-0.87913,-0.59395,-0.67311,0.50988
0.95141,-0.70314,0.96874,-0.87561,0.60319,-0.94425,-0.96606,0.0018384,0.9075,-0.95693,0.55565,-0.357,0.14747,0.7141,-0.059824,0.63445,-0.21454,-0.38492,0.61947,0.87502,-0.26011,-0.47412,-0.89452,0.46353,0.019743,0.1929,-0.37852,-0.43244,-0.14197,-0.85152,0.15478,0.79094,0.2726,-0.98065,-0.70185,0.67554,0.34775,0.49937,0.74181,0.33877,0.81053,-0.73564,-0.0059776,0.35405,0.2774,-0.6419,0.96337,-0.016669,0.7059,0.54089
0.76716,-0.83894,-0.43957,0.57842,-0.8231,0.77471,-0.80511,-0.82785,0.52194,-0.77704,-0.93998,-0.67643,0.36471,-0.63813,-0.12303,-0.77938,-0.94705,-0.45945,-0.2468,-0.34627,-0.36513,-0.58887,-0.29683,-0.47425,0.73145,-0.33797,-0.5116,0.35289,-0.70902,0.29675,0.013971,0.75889,-0.48984,0.67409,-0.71512,-0.90772,0.87506,-0.78847,0.4938,-0.74818,0.2647,-0.38222,-0.17912,0.53133,0.89714,0.57037,0.79023,-0.69823,0.53949,-0.52458
0.28183,0.42303,-0.54498,0.55107,-0.94964,0.83313,0.61681,-0.49601,-0.88846,0.1106,0.36075,0.48374,-0.84351,-0.80142,0.55868,0.63107,0.55091,0.73445,-0.36068,-0.95358,0.77142,-0.81046,-0.71928,-0.52376,0.99478,-0.414,0.88051,-0.057509,-0.55725,0.23812,0.66273,-0.78124,-0.79156,-0.31304,-0.81471,0.73698,-0.72133,-0.054203,-0.41287,-0.16673,-0.31982,-0.1679,-0.44377,-0.075397,0.57614,-0.38073,-0.39387,0.68887,-0.017229,0.38986
0.80917,-0.85996,-0.72816,0.97477,0.66954,-0.12301,0.96316,-0.65394,-0.94315,0.21014,0.78549,0.13343,-0.29586,-0.96473,-0.78147,0.6408,-0.11115,0.43611,0.78664,0.54617,-0.94413,-0.72212,-0.28033,0.044711,0.21967,0.0081632,-0.31461,0.50441,-0.2427,-0.13923,-0.31553,-0.85482,-0.27924,-0.74821,0.83465,-0.32876,0.03676,-0.78188,-0.46514,-0.74731,0.095859,-0.18925,0.68703,0.23377,0.22022,0.053544,0.086394,0.059679,0.99831,-0.34469
0.62144,0.048294,0.80339,0.8903,-0.7053,-0.54361,-0.0090876,-0.9346,0.85414,0.56809,-0.25795,0.48918,-0.29335,0.59572,0.3895,-0.46358,-0.76619,-0.5401,-0.064681,-0.83026,0.26037,0.85892,-0.5957,0.61893,-0.95364,0.68956,0.73793,-0.41993,0.25748,-0.58599,0.75701,-0.12467,0.036817,0.11831,0.70659,-0.3974,-0.033925,-0.73301,-0.050674,0.017194,-0.83601,0.93192,-0.89831,-0.60944,0.14166,-0.37989,-0.30377,0.1943,-0.18482,0.85416
0.21208,0.55633,-0.13824,0.46577,0.85097,0.21829,-0.141,0.75298,-0.25882,0.90951,0.24725,-0.42447,-0.76987,-0.48693,-0.8788,-0.80639,0.99416,-0.37219,0.84412,0.071298,-0.53532,0.61876,-0.41748,-0.15382,0.81127,0.89133,0.8604,0.51854,0.38624,0.28002,-0.37979,0.77806,-0.69396,-0.57417,-0.28574,0.79068,-0.082493,-0.3235,-0.62483,0.81126,-0.30261,-0.62859,0.4655,0.35297,-0.98863,0.75253,-0.26968,-0.37284,0.4699,0.014699
0.7147,-0.85701,0.1222,0.91581,0.86693,0.85072,0.3922,-0.8845,-0.96833,-0.61137,0.38535,-0.81194,-0.015125,-0.28034,0.16346,0.11396,0.35798,0.95801,0.34461,0.59673,0.42593,0.74181,0.4994,0.25425,0.57475,0.69662,-0.3251,0.4031,-0.30605,-0.8881,0.36564,0.15823,-0.75046,0.30722,-0.81587,0.038801,0.48746,-0.8183,-0.071066,0.40083,0.84962,0.51319,0.9009,-0.6069,0.20645,-0.83187,0.026238,-0.31472,0.79307,-0.50824
-0.6862,0.32269,-0.97121,-0.74043,-0.78578,0.27122,-0.563,-0.064822,0.0072725,-0.066646,0.56996,0.16391,-0.13343,0.61706,-0.25165,0.66308,-0.11577,0.8831,-0.75063,0.095048,-0.84822,0.72395,0.57997,-0.63969,0.017104,0.088036,-0.45767,0.17802,0.42482,0.43651,-0.99007,0.94412,0.72633,-0.1691,-0.33558,-0.47892,-0.0030271,0.82479,0.86418,0.064485,0.69196,0.89484,-0.35164,0.13241,-0.50358,-0.043726,0.60336,-0.081844,-0.0076882,-0.79596
-0.35317,-0.13027,-0.045105,0.33656,0.75522,-0.89037,-0.84748,0.2147,0.89831,0.82224,0.26483,-0.82961,-0.53541,0.13249,-0.28179,0.35394,-0.69453,0.54605,-0.088718,0.60565,0.94066,-0.55138,0.9883,0.31499,0.50923,0.041679,0.052243,-0.41915,-0.56805,0.38098,-0.32593,0.14381,-0.46566,-0.16553,-0.86508,0.8818,-0.68865,0.3212,0.045593,0.23994,-0.60929,0.13739,0.73137,0.90195,-0.38347,-0.7653,-0.046735,-0.86766,0.15157,0.55342
0.012947,-0.21163,0.66809,-0.23982,-0.18734,0.98436,-0.078626,-0.28456,0.86488,-0.16808,0.38057,0.54995,-0.60121,0.56415,0.43487,-0.48964,-0.37736,0.66228,-0.32564,-0.36885,-0.19176,0.37475,0.7538,-0.40631,0.22201,0.052435,0.1975,-0.82518,0.22863,-0.87662,-0.085227,-0.36887,-0.34039,0.4228,-0.82391,0.61548,0.34252,0.16802,0.17911,-0.76509,0.62075,-0.8416,-0.36406,0.92472,0.40638,0.42204,0.98107,-0.41043,0.4727,0.79429
-0.21346,0.20878,-0.88428,0.07807,-0.7217,-0.40877,-0.23164,-0.10744,-0.89259,-0.40397,0.60525,0.42308,-0.48574,-0.024389,0.3958,-0.45309,0.06778,-0.88849,0.61006,-0.207,0.66137,-0.40038,-0.58658,0.9785,-0.15569,0.25017,0.12926,-0.5523,-0.049075,0.25009,-0.42102,0.61298,-0.43571,0.8384,0.4461,-0.79798,0.61621,-0.69113,0.73896,-0.72972,-0.45124,-0.87689,-0.51507,0.56174,-0.011757,0.093933,-0.25376,0.37855,0.67637,0.042609
-0.43859,0.99263,-0.35908,0.87459,0.59346,-0.51982,-0.51806,0.59245,0.8291,-0.48528,-0.24843,-0.95808,-0.81206,-0.11687,0.58992,-0.44639,-0.13692,-0.71544,0.052343,-0.058675,-0.42831,0.5381,-0.57942,-0.099576,-0.50683,-0.44238,-0.75171,0.73717,-0.31831,0.56561,0.53803,-0.044661,0.42206,0.2841,-0.17859,0.97181,0.28347,0.17776,-0.12369,-0.16795,0.28261,0.25975,-0.52711,0.54283,0.93445,0.89782,0.69413,-0.70769,0.2937,-0.11279
0.77694,-0.7444,-0.22837,0.7879,-0.73418,-0.22826,0.52089,0.62753,0.007507,0.66381,-0.90425,-0.58052,-0.46082,-0.32411,0.16988,0.45259,0.78277,0.0085752,-0.80477,-0.47194,-0.97,0.65906,0.88525,-0.29724,-0.58739,0.043774,0.13403,-0.59588,0.48974,-0.099277,-0.72993,0.25276,-0.9508,-0.33944,0.040229,-0.76829,-0.11904,0.25862,-0.35406,0.42208,0.11035,-0.59969,-0.28868,-0.0021968,-0.89693,0.35164,-0.93193,0.9572,-0.10283,0.3969
-0.38814,-0.60401,0.45357,-0.55054,-0.023596,-0.47777,0.93011,-0.39403,-0.61692,0.38907,-0.794,0.35477,-0.6071,-0.89044,-0.089925,0.49998,-0.6952,0.34858,-0.090903,0.55467,0.15212,0.58525,0.33381,0.16992,-0.35297,-0.33952,-0.054338,-0.93191,0.33935,-0.68374,0.70408,-0.5767,-0.98918,0.43858,-0.45955,0.047737,-0.48098,-0.4381,0.51036,0.42113,0.13217,0.50406,-0.63135,-0.77652,0.85434,-0.44612,0.55325,0.98039,-0.41422,0.91609
0.65413,0.77553,0.93451,-0.82473,0.51745,-0.55061,-0.81015,-0.50629,0.23767,-0.98764,0.080991,-0.093739,-0.165,0.38469,-0.62225,-0.29629,0.016052,-0.6483,0.92369,-0.011822,-0.88487,0.22049,-0.82038,0.7672,-0.28634,-0.44981,-0.46059,0.66438,0.1143,0.84806,0.57675,-0.91597,-0.83575,-0.56701,0.44762,-0.79351,0.17399,-0.68834,0.6794,0.21883,0.71535,-0.34336,0.12861,0.83085,-0.46738,-0.068357,-0.33499,-0.70725,-0.82046,0.23785
-0.63377,-0.87966,0.94047,-0.5691,0.91336,-0.26371,0.55961,-0.22133,0.75065,0.2743,0.69867,-0.013566,-0.96404,-0.96456,-0.66874,0.90746,0.45064,-0.21968,-0.10548,0.25383,0.20895,-0.71325,-0.021948,0.62472,-0.184,-0.25418,0.96789,-0.76098,0.45563,0.90341,0.36394,-0.81683,-0.41718,-0.36398,0.73769,-0.82772,-0.37593,0.046813,0.1562,0.51912,-0.7983,-0.080579,0.68668,0.71056,0.88836,0.32541,-0.47946,-0.15607,0.43895,-0.91854
0.7021,-0.83346,0.25299,0.36165,0.88466,-0.65139,-0.62272,-0.67139,-0.16024,0.63003,0.064939,-0.29464,-0.61609,-0.15716,0.75486,0.90323,0.45482,0.83694,-0.68272,0.024483,0.23436,0.8431,-0.69108,0.36555,0.028808,0.97264,-0.57401,0.50532,0.87049,-0.22762,-0.22274,0.20693,0.71966,-0.6709,-0.64666,0.11509,0.64689,-0.48138,0.33311,0.16893,0.75162,-0.080769,-0.10299,-0.61027,0.28784,0.2431,0.29874,0.38269,0.77443,0.55862
-0.40786,0.17167,0.70318,-0.13456,-0.35591,0.53624,-0.98103,0.5024,0.86086,0.32264,0.81722,0.2238,-0.46915,0.76275,-0.14409,0.19986,0.61354,0.92464,0.16643,0.68897,0.56547,-0.15371,0.75106,0.98831,0.81759,0.50671,-0.5001,0.45248,-0.47297,0.74099,0.73441,0.27079,-0.82174,-0.61519,-0.20834,0.83662,-0.34162,-0.84077,-0.089064,-0.21635,0.45901,-0.33127,0.031689,-0.24181,-0.052862,-0.8068,0.9325,0.20456,0.28399,0.19473
-0.93767,-0.92416,-0.42245,-0.029437,0.84803,0.16738,-0.17985,-0.87888,0.060718,-0.33013,-0.82069,-0.086261,0.19322,-0.99704,-0.17586,0.4332,0.3841,0.52015,0.90917,0.602,0.090046,-0.7427,0.76965,-0.55892,-0.76612,-0.10802,0.90225,-0.11971,-0.62143,0.47779,-0.63728,-0.1797,0.82011,0.71208,-0.19515,-0.87763,0.11833,-0.90884,-0.75755,0.98784,-0.11408,0.38647,0.44119,-0.60089,0.57521,0.48214,0.16835,0.81132,0.050884,-0.062312
-0.25802,-0.79293,-0.24518,0.44073,0.25354,-0.37015,-0.71735,-0.81733,0.68879,0.91832,0.72789,-0.41024,-0.76702,0.0014056,0.00076884,0.79359,0.084093,-0.854,0.69441,-0.0086542,-0.05198,-0.85323,0.31854,0.83813,-0.63993,0.69156,0.48614,-0.2672,-0.45926,0.92219,-0.57493,0.39001,-0.71118,-0.65225,0.045177,0.75903,0.81345,-0.85093,-0.040036,0.21268,-0.58597,0.2543,0.43772,0.26641,-0.98351,0.70895,0.73366,-0.67147,-0.62373,-0.52633
-0.22965,-0.20168,-0.53933,-0.36533,0.28935,0.80863,0.065519,0.87982,0.52101,0.070693,0.7149,0.67548,-0.69251,0.50959,0.10963,-0.77154,-0.73692,-0.15398,-0.82749,0.73427,-0.33654,0.13998,-0.946,0.79014,-0.06177,0.0028488,0.023313,-0.59215,-0.70346,0.66914,0.92481,-0.56941,0.34943,-0.57214,-0.6503,-0.017008,-0.88496,-0.039853,0.1021,0.85401,-0.68923,-0.76714,-0.88869,-0.77804,-0.70495,0.35418,0.043801,-0.30833,-0.48925,-0.044205
0.71304,0.075422,0.96771,0.67291,0.22253,0.79612,0.11552,0.16734,0.2979,0.13328,0.76579,-0.30455,-0.15811,0.35101,-0.14762,-0.13032,-0.1089,-0.64415,0.71485,-0.005779,-0.43906,-0.72385,0.91609,0.78188,-0.37572,0.10374,-0.089777,0.66362,-0.67128,-0.19783,-0.13244,-0.84632,-0.57441,0.50615,-0.16857,-0.31717,0.35876,0.077369,0.03954,0.75269,0.45844,-0.88597,-0.19735,0.94178,0.37144,0.41699,-0.1756,-0.050132,0.099372,0.50543
0.84508,-0.56823,-0.98544,0.63901,-0.90422,-0.13043,0.38688,0.71596,0.85858,-0.76827,-0.85128,0.94034,-0.9118,-0.6378,0.58735,0.6887,-0.016822,-0.47995,0.88541,0.9236,0.7007,-0.75862,0.29191,-0.43463,0.86392,0.48552,-0.38295,0.11575,0.59872,0.010482,0.19112,-0.52871,-0.35186,0.70066,-0.99083,0.6464,0.41594,0.72464,0.10576,-0.82352,-0.40313,-0.13676,0.78237,0.88663,0.080234,-0.80661,0.079956,-0.30252,-0.34598,-0.30858
-0.48649,-0.22866,0.38689,-0.39377,0.35358,-0.85873,0.75274,-0.2394,0.39716,0.017832,-0.31568,-0.19505,-0.044575,0.99205,-0.16359,0.2594,0.39773,-0.16656,0.98262,-0.85433,-0.57733,-0.23985,-0.81999,-0.37447,0.75551,-0.45516,0.42656,0.84241,-0.54751,0.29276,0.5091,-0.68171,0.0085663,-0.35505,0.83089,0.89343,0.89786,-0.41497,-0.39877,-0.43433,0.12994,0.8644,0.10206,0.28773,0.091406,-0.22827,-0.42632,0.15411,-0.67639,0.81034
0.15659,0.82756,-0.24154,0.62809,0.9319,0.28995,-0.96073,-0.27927,-0.54338,0.62995,-0.54357,0.048803,0.90226,0.78292,-0.56141,0.6405,0.05481,-0.53479,0.6211,-0.24515,-0.72962,0.99046,-0.436,0.032265,0.97881,-0.2273,0.81624,0.5107,-0.8663,0.54793,0.3846,0.43425,-0.99217,-0.11898,-0.13668,0.29905,0.91448,-0.99176,-0.23596,-0.89154,0.11082,-0.78645,-0.20089,-0.14293,-0.034444,-0.89154,0.36037,0.1217,0.82358,0.30705
-0.34545,-0.27573,0.42779,-0.94764,0.84822,0.67665,0.37319,-0.41584,0.40681,0.26454,0.68882,0.020714,0.78311,0.39198,0.30202,-0.85364,-0.54835,-0.65786,-0.50405,0.18185,0.12557,-0.29838,0.53391,0.85183,-0.61125,0.50722,-0.11077,0.61735,-0.59969,0.8276,-0.11215,0.99769,-0.90927,0.59304,0.47275,0.95562,0.63162,0.088247,-0.22685,-0.69951,0.42536,-0.95688,0.9718,0.67228,-0.78153,0.57912,-0.18608,0.92281,0.67301,0.052342
-0.050819,0.083411,-0.74461,0.67471,-0.16749,0.80746,0.97286,-0.82875,-0.52394,-0.73982,-0.73181,0.14519,0.82233,-0.79599,0.86163,0.95953,-0.047501,-0.13067,-0.46735,-0.5683,0.37389,0.81505,-0.60819,0.068329,0.63882,-0.013058,0.54892,0.23344,0.83431,0.40621,0.2315,-0.21283,0.76574,0.86679,-0.79941,0.011527,0.72778,0.23739,-0.41393,0.4998,0.97375,0.36324,0.55689,-0.71078,0.13288,-0.62855,-0.73054,-0.03149,0.34601,0.1651
0.48619,-0.63434,-0.84488,-0.021448,-0.35606,0.24024,0.97152,0.29119,0.080672,0.066486,0.7626,0.78682,-0.56988,0.74335,-0.5997,0.43949,-0.91284,-0.54993,-0.789,0.35287,-0.27472,-0.060829,-0.95014,0.35916,0.22842,0.33036,0.13613,0.35668,-0.3996,0.24714,-0.6656,-0.95972,-0.86067,-0.12107,-0.8321,0.80912,-0.66489,-0.25491,-0.98301,-0.20016,-0.030773,0.46907,0.90232,-0.66757,-0.30413,-0.31409,0.16387,-0.050555,-0.079575,0.18844
0.34164,-0.31699,0.13645,-0.79465,-0.75175,-0.15001,-0.087838,0.86639,-0.24548,0.90217,-0.61265,-0.2502,0.25053,0.81671,0.58789,0.93302,0.627,0.89481,-0.42068,0.33422,0.37387,-0.47125,-0.73652,-0.77508,-0.52954,0.80374,-0.78891,0.97374,0.039095,0.93622,0.29755,0.2589,0.18922,-0.68105,0.56508,0.089146,-0.3459,-0.066308,-0.5368,0.39901,0.49265,-0.51481,0.21207,0.82895,0.64619,-0.83936,-0.75249,0.11777,-0.89286,0.28133
-0.87222,0.70255,0.7905,0.15777,0.49672,-0.98821,-0.30398,0.088799,0.26576,-0.84401,0.69325,0.93602,-0.97009,0.81216,-0.21823,-0.30407,-0.60036,-0.24497,-0.67733,0.50981,-0.31083,-0.49142,-0.30199,0.21318,0.58423,-0.33142,-0.18915,-0.97092,0.96529,-0.84235,-0.50431,-0.64588,-0.31867,0.59891,0.84647,0.63858,0.54611,0.63571,-0.63063,-0.82442,0.066165,0.76335,-0.51553,-0.03716,-0.048318,0.63731,0.88385,0.39878,-0.90638,-0.74155
0.80364,0.92866,0.22189,-0.69628,-0.36468,0.94017,0.96583,0.33995,0.9752,-0.12654,-0.58404,-0.29343,0.56787,0.13427,0.0036826,0.19586,0.046294,-0.28136,0.46939,0.56248,0.6583,-0.68082,0.37907,-0.44064,-0.13314,-0.40886,-0.32804,-0.53879,0.042201,-0.60953,0.031336,0.17768,0.82812,-0.53987,-0.54136,0.74396,-0.93088,-0.83359,0.51459,0.32617,0.98224,0.18742,0.14334,-0.20166,0.95921,-0.67832,-0.35401,0.80015,-0.48131,-0.4368
0.44185,0.073354,0.61225,0.83911,-0.94094,0.061435,-0.02826,0.85022,0.55386,0.56332,0.34108,-0.63211,-0.98306,-0.18352,0.82669,-0.033552,0.45678,0.98232,-0.11457,0.23168,0.32183,0.12011,-0.80879,-0.76933,-0.74064,0.2362,-0.48181,-0.33803,0.13517,0.50518,0.13265,0.06049,0.32784,-0.94005,-0.095019,0.64238,-0.92311,-0.86543,0.58953,-0.22395,-0.75455,0.1769,0.43168,0.039998,-0.87469,0.56099,0.44202,-0.43551,-0.69442,0.70143
-0.11341,0.77523,-0.93198,0.45394,0.45942,-0.3185,-0.36981,0.14933,0.43376,-0.67272,-0.56711,0.13012,0.52227,-0.79872,-0.18902,0.66148,-0.8835,-0.34818,0.48306,0.61982,-0.28935,-0.61242,-0.0015609,0.74646,0.1405,-0.63504,-0.068029,-0.50522,-0.55395,0.061138,0.44329,-0.3132,-0.45314,0.4792,-0.5856,0.56132,0.99242,0.63091,-0.37707,-0.13073,0.90321,-0.17148,0.11037,0.83404,-0.55989,0.94022,0.66072,0.40594,0.29175,-0.62324
-0.6553,0.49942,0.23707,-0.70846,0.36552,0.18376,-0.23723,0.8256,0.68524,0.38568,-0.87051,0.38673,-0.33757,0.087755,0.27935,-0.85721,-0.15794,0.78465,0.99834,-0.41983,-0.83677,-0.80306,-0.73605,0.33838,-0.74433,-0.57571,0.15159,-0.067254,-0.25872,0.8044,-0.33753,0.43083,-0.21279,-0.34541,-0.78622,0.76644,-0.55969,-0.49783,-0.22253,0.58921,-0.73528,-0.84329,-0.22193,0.33192,0.13994,-0.24766,-0.87481,0.24535,-0.61793,-0.36654
-0.16812,-0.72052,-0.27725,-0.58447,0.028951,0.78258,-0.96398,0.85509,-0.47617,-0.13064,-0.14175,0.039236,-0.7909,-0.11963,-0.19874,-0.071455,-0.84083,-0.26009,0.64942,-0.4796,0.20133,-0.39947,0.2537,-0.71171,-0.56414,0.61271,0.70873,-0.65687,0.011679,-0.030873,0.98118,-0.29883,-0.68614,-0.81588,-0.8281,-0.93686,0.33321,-0.53629,-0.53221,-0.39881,-0.7581,0.45483,0.41066,-0.79988,-0.41135,0.60745,-0.52558,-0.42655,0.55838,0.55253
-0.99857,-0.99081,-0.71907,-0.015866,0.61595,-0.093068,0.0072636,-0.42457,-0.077433,0.63981,-0.39384,0.41562,0.8176,0.26109,-0.64071,-0.58314,0.027068,-0.99519,0.15373,-0.87951,0.7944,-0.53738,0.08772,0.56041,-0.064487,-0.78256,-0.94264,0.89379,-0.087876,0.95333,-0.36289,0.086344,0.49749,-0.53558,0.98583,0.96426,-0.088993,-0.2606,-0.089486,-0.22957,0.82739,0.70832,0.55763,0.85791,-0.30043,-0.70153,0.21355,0.81709,-0.5492,0.061625
0.093083,0.58251,-0.74325,-0.41609,0.79071,0.38844,-0.74602,0.88139,-0.27416,0.10882,0.17113,0.8113,0.54443,-0.57101,0.73274,0.39756,0.13197,0.52187,-0.014737,0.44386,0.90592,0.21177,0.20759,-0.22173,-0.020525,0.35462,0.46825,-0.27543,0.85407,-0.54712,-0.65702,-0.062599,-0.92777,-0.88443,-0.11836,0.75658,-0.45444,-0.97609,0.87806,0.75789,0.89678,-0.31253,-0.35094,-0.54806,0.0045856,0.76188,0.65881,0.56985,-0.082829,-0.28255
0.12861,0.027987,-0.92797,0.32522,0.98487,0.82975,-0.38965,0.62913,0.23399,0.57629,-0.50843,0.75385,-0.75139,0.27962,0.7784,0.46388,-0.41271,-0.14667,-0.53264,-0.10789,-0.13812,-0.043574,0.60908,-0.37019,-0.61309,-0.61023,-0.53713,-0.82846,0.42721,0.43146,0.5839,-0.97391,0.95955,0.59888,-0.49188,0.29555,-0.41356,-0.22739,0.63691,0.80834,0.3288,0.74748,0.90023,0.6561,0.80304,-0.0087495,0.37634,0.87302,-0.47913,0.80983
-0.86987,-0.53793,-0.19627,-0.79644,-0.19095,-0.77715,-0.48788,0.050401,-0.3811,-0.4642,0.48011,-0.46477,0.91937,0.93684,0.018183,-0.83907,0.73717,-0.73962,-0.69254,-0.75224,0.84344,0.85791,0.044789,0.72222,-0.75974,-0.25642,0.56182,0.93509,0.34191,0.22674,-0.89609,-0.73774,0.011132,-0.10399,0.45885,0.41302,0.86548,0.61829,-0.18257,0.57072,0.12144,0.64435,-0.9517,0.84905,-0.016936,-0.68846,-0.90507,0.7835,0.53204,-0.87241
-0.22661,0.40725,0.94644,0.53978,-0.52376,-0.55313,-0.99542,0.63917,0.26531,0.058565,-0.55396,0.84091,-0.3202,0.39443,-0.54332,-0.20241,0.47233,0.70399,0.43632,0.41704,0.12046,-0.13625,-0.79791,0.83038,0.35117,0.079436,0.35644,-0.4847,-0.67105,0.028635,0.5838,0.39396,0.33053,-0.86676,-0.22771,0.89749,0.73143,0.55581,0.43217,-0.38083,-0.68553,-0.61598,-0.33939,0.62105,-0.89026,0.36087,0.36828,-0.32816,0.66981,0.54393
0.0099298,0.30149,0.78021,-0.41082,-0.72603,-0.023628,0.54543,0.39325,0.55811,0.29843,-0.99916,-0.62127,0.2166,0.76833,0.85492,0.84504,0.3268,-0.058926,0.20113,0.96384,0.87086,0.22252,0.35681,-0.45533,0.98032,-0.49772,-0.67481,-0.9019,-0.71736,0.34086,0.72327,-0.20082,0.08087,0.95057,0.17614,-0.13581,-0.80431,-0.21931,-0.93662,-0.96721,0.39328,0.32221,-0.40161,0.44569,-0.64683,0.23144,0.79617,0.2382,-0.39584,-0.50574
0.73715,0.73632,0.19994,-0.67741,-0.13401,0.59656,0.3236,0.749,0.77608,-0.63812,-0.99414,-0.52334,0.15119,0.85367,-0.59854,-0.12707,0.92405,-0.97402,0.028321,-0.12165,-0.99898,-0.84767,0.63709,0.7089,0.31437,0.4383,-0.49993,-0.80627,-0.31766,0.84004,-0.78715,-0.55833,-0.12172,-0.38992,0.55511,0.8224,-0.73237,0.65785,0.66768,-0.66953,-0.17551,-0.83002,0.42816,-0.71475,-0.18161,0.21363,-0.8844,-0.068939,-0.18878,0.72068
0.49703,-0.30444,-0.20551,-0.48715,0.68045,-0.11785,-0.20407,0.13542,0.35768,-0.60381,0.8514,0.076853,0.97199,0.89052,0.34324,-0.52537,0.77576,0.87799,0.68312,-0.65664,-0.13524,-0.94974,-0.24796,-0.86751,-0.54718,-0.35767,0.95075,-0.11688,-0.97101,-0.66876,-0.65226,-0.77616,-0.20282,-0.58313,0.42272,0.96632,0.34654,-0.038626,0.85767,-0.48754,0.16832,0.28491,-0.1761,0.45073,0.30064,0.54215,-0.80504,-0.75732,0.86433,-0.3272
0.49143,-0.33871,-0.9625,0.94122,0.3672,-0.66085,0.0021024,0.35685,-0.57121,-0.68871,-0.92062,-0.73253,0.97313,0.035765,-0.059358,-0.54233,0.85684,-0.24527,-0.43266,-0.98408,0.21042,-0.73274,-0.99986,0.26849,0.65599,-0.92472,0.54376,0.22748,0.090194,-0.53411,-0.97033,-0.13663,-0.54498,0.23124,0.89418,-0.11804,-0.16976,-0.52517,-0.92428,-0.051186,0.97706,0.12484,0.82602,0.54321,-0.023035,-0.45321,-0.20403,0.87236,-0.59726,0.8375
0.69587,-0.41246,0.54445,-0.59179,-0.39254,0.7662,0.2251,-0.94237,-0.60652,0.97172,0.074149,-0.54539,-0.081222,-0.64364,0.68502,-0.45726,0.4254,0.73456,0.0019481,-0.4456,0.58034,-0.7041,-0.96743,0.75751,-0.25465,0.62372,0.69573,-0.68726,-0.25597,0.56845,-0.42871,-0.40207,-0.35069,0.58748,0.52011,-0.50049,0.020355,0.54467,-0.11071,-0.23572,-0.96483,0.82229,0.27489,0.37155,0.874,0.95031,0.78861,0.057337,0.53714,-0.25886
-0.5258,-0.97333,0.38939,0.81057,-0.25569,-0.94251,-0.73386,0.51885,-0.17878,-0.49887,-0.61677,-0.48694,-0.24756,0.64395,-0.94909,0.62013,-0.83341,0.74573,-0.78627,-0.10561,0.94666,-0.047778,-0.48094,-0.76647,0.39493,-0.90938,-0.2607,-0.091334,0.89373,-0.45778,-0.98526,0.27848,0.28758,0.34439,-0.65062,0.25899,-0.99045,-0.15855,0.6205,-0.93014,0.24361,0.65339,-0.11498,0.89335,0.79868,-0.093267,0.34121,0.82424,0.25855,0.84078
-0.32494,-0.44064,-0.91971,-0.67734,-0.64389,-0.28239,-0.43329,-0.64916,0.53396,-0.25475,-0.6727,-0.36522,-0.93641,-0.90218,-0.097228,-0.11213,-0.49121,-0.95667,-0.34417,-0.91936,0.69376,-0.17828,0.88553,0.84315,0.28991,-0.40495,0.35353,0.10614,0.48649,0.43928,0.52402,-0.8348,0.45061,-0.56959,0.001364,0.19682,0.56573,-0.94476,-0.855,0.98985,-0.7188,-0.28503,-0.090807,0.43009,0.32019,-0.14065,0.64887,-0.52325,-0.50412,-0.25983
0.92826,0.71565,0.46834,-0.057399,-0.28248,0.72846,0.6748,0.11976,0.5734,-0.041361,0.39449,-0.73403,0.43823,-0.74169,-0.1622,0.82029,-0.30383,0.74783,0.31344,-0.88587,0.99545,0.55867,-0.19829,0.20973,-0.94934,-0.39216,-0.13665,0.71283,-0.77096,0.16384,0.75985,-0.83545,-0.94765,0.35606,-0.4044,-0.97987,-0.97533,-0.27111,-0.33105,-0.78207,0.60728,0.5288,0.7521,-0.50913,0.66276,-0.0015476,0.73708,-0.35395,-0.22446,-0.58075
-0.71297,-0.6978,0.62268,0.87466,-0.48848,0.47042,0.73186,0.064349,0.19919,-0.39116,0.33744,-0.672,-0.49624,0.86385,-0.90614,-0.10947,0.79316,0.74061,0.75355,-0.91223,0.2946,0.17857,-0.70011,-0.90987,-0.40453,0.07277,0.30789,-0.52268,-0.35095,0.78731,0.59082,0.60502,-0.29409,-0.79162,0.72504,0.072854,0.36241,-0.13396,-0.58464,0.65756,-0.837,0.46842,-0.24254,-0.62971,0.72556,-0.88454,0.2608,0.28418,-0.48767,0.20369
-0.79293,0.10499,-0.87044,-0.7285,-0.23175,0.312,-0.89048,-0.39198,-0.67988,0.42285,0.56879,-0.45756,-0.18647,-0.43819,0.85193,-0.17178,0.43783,-0.78562,0.52421,0.31074,-0.68707,-0.56146,-0.39007,-0.93057,0.81125,-0.7596,0.35822,-0.27699,0.22494,0.22611,-0.4687,0.48072,-0.25724,0.38847,0.32652,0.03869,0.79673,-0.017349,0.76515,0.87987,-0.34027,-0.83938,0.41366,-0.47825,-0.29274,-0.11453,0.14494,-0.21993,0.79332,-0.54957
0.81729,-0.87801,-0.026784,0.57048,-0.60758,-0.0077718,-0.013631,0.40014,-0.62478,-0.058245,0.044108,-0.30954,0.65149,0.88819,0.92646,0.18077,-0.47818,0.91848,0.62371,-0.93711,-0.94451,0.77663,-0.66862,-0.74623,0.31646,0.59053,0.89498,-0.098574,-0.038356,0.66809,0.24677,-0.22783,-0.76345,0.62169,0.37364,0.84409,0.92365,-0.42683,0.51599,0.66904,-0.48616,0.017141,-0.68809,-0.84295,-0.20849,-0.52734,-0.083988,-0.89447,-0.20429,-0.37405
-0.76963,0.69244,0.98712,0.32836,-0.10476,-0.80311,0.6603,0.90414,0.71827,0.2534,0.59164,-0.59405,0.13386,0.36868,-0.52679,-0.11219,-0.74355,-0.17064,-0.043358,0.72247,0.8948,0.83451,-0.25171,0.73071,-0.39603,0.0051015,0.012894,0.77861,-0.63722,0.52943,-0.89465,0.97209,-0.65465,0.93147,-0.76771,-0.64871,-0.53173,-0.052178,-0.43355,-0.6724,-0.85206,-0.39039,0.83792,-0.93793,-0.87694,-0.60236,-0.11517,0.57782,0.74176,-0.51843
0.48874,0.92558,-0.22061,0.46234,-0.83481,-0.47418,0.83697,0.08956,0.030605,-0.58344,0.15615,-0.85696,0.1523,0.34829,-0.25534,-0.85396,0.51834,0.83431,-0.43034,-0.60781,-0.79162,0.28939,0.32846,0.048169,0.16168,-0.54403,-0.11351,-0.43805,-0.57861,-0.42022,0.47429,0.21,-0.12102,0.6583,0.22,0.19393,-0.23462,-0.10282,-0.041324,-0.62369,-0.45526,0.19535,-0.70553,-0.032048,0.15315,0.023754,-0.82879,0.33557,-0.78832,-0.70843
0.44933,-0.3978,0.40344,-0.64845,-0.47736,-0.071769,0.60247,-0.48183,-0.062029,-0.21678,0.030632,0.74696,-0.39166,-0.2466,0.31901,-0.10332,0.6096,0.07157,-0.093083,-0.53802,0.12227,-0.22266,0.46332,-0.62368,-0.2587,0.66256,-0.80716,-0.35976,-0.64333,0.53608,-0.32488,-0.27639,-0.57091,0.76227,-0.27507,-0.98796,0.15501,0.91313,0.49633,-0.28414,0.019898,0.010985,-0.34172,-0.18574,0.46884,0.27842,-0.94163,0.23434,0.32215,-0.24872
-0.75556,-0.53357,-0.57043,-0.26303,-0.054808,0.023748,0.95756,-0.95782,-0.98945,-0.65785,-0.22224,-0.69625,-0.42095,0.7362,-0.38832,0.81542,-0.472,-0.50293,-0.42532,-0.81266,0.53063,0.8858,-0.73006,-0.83332,-0.66186,-0.77311,-0.10427,0.43468,0.97809,-0.59782,0.36369,0.52206,-0.27863,0.1408,-0.1895,0.61797,0.6329,0.17873,-0.34599,0.34835,-0.20349,-0.66195,-0.32224,-0.062662,0.82154,-0.72616,0.6144,-0.83714,-0.031059,0.25532
0.96981,0.8702,-0.0011032,0.41644,-0.13448,0.19297,0.14296,0.51485,0.5152,0.16107,0.16036,0.58857,-0.45719,0.11708,0.86287,0.0023597,0.59997,0.56379,-0.28523,0.83101,0.079375,0.2239,-0.50314,-0.44672,-0.91716,0.99865,0.63404,0.14495,0.022464,0.73423,-0.35602,0.43842,0.37306,0.83856,-0.61618,0.17211,0.75863,-0.017445,-0.40678,0.86,-0.99088,0.61915,0.83475,0.25589,-0.0034148,-0.47278,0.34902,-0.46632,-0.78553,0.54495
-0.58371,0.68429,-0.88874,-0.17359,-0.9591,-0.058766,-0.87249,-0.98426,0.02737,-0.44647,-0.014141,0.89273,0.41892,-0.39325,-0.62417,-0.66774,-0.14093,0.20177,0.22622,-0.67429,-0.056104,0.69387,0.95276,-0.79872,0.96475,0.5166,-0.17415,0.61107,0.99986,0.20458,-0.57254,0.03622,0.54214,-0.80521,0.66107,-0.43377,-0.67406,-0.55516,0.70369,-0.69076,-0.74232,0.30482,-0.51532,-0.4146,-0.31672,0.43674,-0.44249,0.20299,0.32173,-0.038511
-0.50051,0.55958,-0.92902,-0.50868,-0.68304,-0.17265,-0.82713,-0.46901,-0.11619,-0.81591,0.11786,-0.29713,-0.51923,0.69848,0.42481,-0.61519,0.77631,-0.59273,-0.17094,-0.2931,0.41515,-0.64416,0.40769,0.78252,0.16979,0.03692,0.20002,0.13661,-0.54097,-0.1337,0.3253,-0.78177,-0.32071,-0.81592,0.89062,-0.53823,0.092932,0.29446,0.12638,0.86787,0.83686,0.073108,0.53784,-0.78909,-0.49037,0.0016961,-0.61417,0.90819,-0.86275,-0.89573
-0.027521,0.015199,-0.02139,0.76446,0.32324,0.02637,0.9536,0.10011,0.94891,-0.47873,0.70923,-0.88215,0.11997,0.56911,-0.79239,0.056982,0.55688,-0.24742,0.84276,-0.83715,-0.44945,0.82528,-0.14482,0.73035,0.23627,-0.046751,-0.82664,0.71653,0.99025,-0.31095,-0.99766,-0.783,-0.96379,0.40431,0.80492,-0.80644,-0.93803,-0.31823,-0.24686,0.62754,-0.45044,0.78082,-0.75357,0.0654,0.71915,-0.67715,-0.21234,-0.53013,0.4372,0.76409
-0.41451,0.16488,-0.41031,0.38953,0.16996,-0.6864,-0.10258,-0.72293,-0.29935,0.6744,0.38292,0.84277,-0.34794,0.94126,-0.37536,0.82841,-0.47029,-0.86927,-0.35784,0.19316,-0.060316,-0.67488,-0.71238,-0.42332,-0.43996,-0.45498,-0.76537,-0.059734,0.63077,-0.89317,0.50343,-0.59445,-0.6798,-0.74456,0.2012,0.06363,0.19075,0.3698,-0.81488,-0.65752,0.50388,-0.89077,0.3007,0.82922,0.11433,-0.27448,0.26478,-0.64441,0.09848,-0.25374
0.433,0.17293,-0.87036,0.36015,-0.63761,-0.51528,0.78834,-0.10791,-0.6046,0.50592,-0.90934,0.55431,-0.44366,0.9565,0.57973,-0.92839,-0.58172,0.97496,0.50202,-0.22738,0.72903,-0.73747,-0.082921,-0.75635,0.80447,0.92632,0.98295,0.56413,-0.66135,-0.36275,0.47433,0.40985,-0.42226,0.26723,-0.15185,-0.72473,0.77986,0.80006,-0.053754,0.15112,0.957,-0.41801,-0.26308,0.22266,0.93488,-0.75859,-0.5477,-0.20248,0.96849,-0.14096
0.14838,-0.15894,0.40035,-0.93805,-0.30145,-0.60868,0.82238,-0.71631,-0.042814,-0.27094,0.80212,-0.50163,-0.46923,0.20654,-0.71106,-0.67242,-0.24805,0.032662,-0.58921,-0.057728,0.17667,-0.44714,0.20051,0.4647,-0.12005,-0.36111,0.30776,0.98874,0.58868,-0.39336,0.10912,0.376,-0.16147,0.95631,-0.98331,0.53458,-0.038208,-0.35933,0.34424,-0.86445,0.1467,0.1449,0.92459,0.76677,0.85697,0.43862,-0.92032,-0.14917,-0.88072,-0.58691
0.42205,0.66618,-0.36876,0.29341,0.25433,0.39997,0.92283,0.75127,0.77779,0.19929,-0.49149,0.063406,0.004938,-0.97014,-0.37077,-0.6883,0.59847,0.89152,-0.39268,0.97339,0.97343,-0.3073,0.50828,-0.51699,-0.51461,-0.094095,0.27236,0.096144,-0.24735,0.54363,0.99216,0.6954,-0.38147,-0.36587,-0.90151,-0.90725,-0.47617,-0.39845,-0.1888,0.94579,-0.041125,0.0027246,-0.24197,-0.35439,-0.17677,-0.45486,-0.82176,0.2029,-0.06609,0.41949
-0.79838,-0.68952,0.56588,-0.88747,0.023881,0.09506,0.55612,0.10023,0.11965,-0.31454,0.11139,-0.8528,0.1358,-0.48613,0.53272,-0.023188,-0.51429,-0.56605,-0.46268,-0.6725,0.88128,-0.82314,-0.62752,-0.86156,-0.91302,0.066437,0.73331,-0.088576,0.0080922,0.93776,-0.23643,0.2351,-0.087876,0.14062,0.039953,-0.97527,-0.63528,-0.81165,0.29965,-0.53348,-0.76237,0.45786,0.17571,-0.55238,-0.84933,0.3582,-0.35317,-0.81691,-0.91315,0.07005
-0.37225,-0.7813,-0.63852,0.47582,0.68337,-0.79722,0.8962,0.1691,-0.50176,-0.12704,0.22648,0.70319,-0.74778,-0.3799,-0.40079,-0.23796,0.55775,0.37348,0.38628,0.88949,0.89447,-0.61591,0.64595,-0.29105,-0.7562,0.56676,-0.44765,0.72249,-0.62163,-0.79885,0.70318,0.57658,-0.33216,-0.39425,-0.035294,0.64962,0.73563,-0.59288,0.93715,0.77515,0.10094,-0.055943,-0.14977,0.45957,0.94341,0.35364,0.21395,0.90467,0.9334,0.55375
0.85657,0.046463,-0.95127,0.96902,-0.79545,-0.30496,0.35816,0.061598,-0.47007,-0.48356,0.64034,0.50264,-0.90226,-0.54542,0.27494,0.54201,-0.44237,-0.067046,-0.6663,-0.075897,0.13403,-0.34763,-0.54231,-0.15387,-0.0052439,-0.17533,0.33196,0.47287,0.34212,0.90806,0.9127,0.25467,-0.71331,-0.32646,-0.97445,0.66938,0.8326,0.94031,-0.6587,0.3011,0.39972,0.85665,-0.94104,-0.29657,-0.25482,-0.4777,-0.14383,-0.62488,-0.13173,-0.71098
0.78586,0.10564,0.55287,0.40526,0.92276,0.76764,0.42832,0.71919,0.12676,-0.13585,0.097041,-0.64717,0.62634,0.44513,0.45358,-0.71814,0.035655,-0.48833,0.063123,0.88429,-0.97554,0.54282,0.81185,-0.0071762,0.40181,0.81959,-0.85064,-0.26953,0.55294,0.75626,-0.63166,-0.76857,-0.44815,0.26106,-0.079238,-0.65104,-0.56676,0.28675,-0.74711,-0.20032,0.41484,0.91165,-0.46536,-0.24913,-0.78893,-0.034239,0.79722,0.94561,-0.78713,-0.46881
0.19741,-0.67257,-0.17416,0.48988,-0.69199,-0.76873,-0.72481,0.014359,0.58631,-0.92883,-0.94746,0.65241,-0.59711,0.29828,0.42105,0.34065,-0.47209,0.67367,-0.59738,-0.33899,-0.37577,0.81483,0.90705,0.44901,-0.35385,-0.7587,-0.89026,0.87812,-0.7195,0.1233,-0.44595,-0.53908,0.041962,0.73005,-0.94761,0.57644,0.88925,-0.1808,0.83011,-0.1693,-0.51608,0.341,-0.30025,-0.41556,-0.50725,-0.035031,0.049442,-0.27855,0.1613,0.034456
-0.0067066,-0.70125,-0.038756,0.15885,0.46991,0.73942,-0.83445,0.47254,-0.95764,-0.84254,0.67504,-0.93261,0.43781,0.85917,0.32997,0.15022,0.23759,-0.41738,-0.68566,0.77788,0.74554,-0.29671,0.0030355,0.8438,-0.97427,0.74493,0.73392,0.35924,-0.93622,-0.70762,-0.63696,-0.37201,0.60834,-0.55568,0.53789,-0.38534,0.068713,-0.54721,0.44605,-0.69563,-0.017463,0.025648,0.6609,-0.32738,0.7737,-0.18682,0.66096,0.95449,-0.88748,-0.21538
0.6514,-0.87949,-0.50636,0.89786,0.98484,0.42998,-0.77555,0.71497,0.47383,-0.32109,0.92151,-0.96411,0.36998,0.087992,-0.31103,0.63803,-0.16821,-0.76787,0.51389,-0.93639,-0.6657,-0.22336,-0.33576,0.38267,0.30155,0.30278,0.77614,-0.87544,0.13112,0.44636,0.87132,-0.37373,0.9771,-0.23894,-0.1361,0.86304,0.67856,0.23905,0.32986,-0.95003,0.10666,0.60368,-0.24625,0.66945,0.38735,0.73822,0.035018,-0.71831,0.78145,-0.73825
0.63156,-0.13496,-0.25438,-0.8102,-0.06048,-0.66462,-0.26157,-0.77144,-0.19772,-0.58312,0.66232,0.42978,-0.67219,-0.11631,0.49478,0.21459,-0.36309,-0.23494,0.82949,0.42431,0.72875,-0.68246,-0.61096,0.5926,-0.62018,-0.13701,0.96277,0.83818,0.38993,-0.80847,0.35862,0.84108,0.35829,-0.56741,0.92312,0.76154,0.93493,0.71617,0.66198,-0.83561,-0.11861,-0.55437,0.86166,0.86192,-0.52008,0.7497,-0.20741,-0.49428,-0.45069,-0.78178
-0.71759,-0.020289,0.68103,0.83015,-0.071726,0.76564,0.93083,-0.13348,0.42013,0.48641,-0.19551,0.84872,0.69352,0.28046,0.55716,0.46153,-0.39898,-0.57449,-0.56049,0.71225,0.32153,0.69387,-0.84177,0.67449,0.040495,-0.72567,0.79641,-0.63133,0.50179,0.048638,-0.31229,-0.88352,-0.60564,-0.11541,0.1342,-0.59019,0.97699,0.79612,0.22357,-0.68758,0.33659,0.76932,0.069128,0.32079,0.74986,-0.27057,-0.58722,-0.63306,-0.054116,-0.76392
0.20933,-0.98949,0.76086,-0.020127,0.2208,-0.84549,-0.27522,-0.43046,0.2822,-0.0035729,0.0063775,0.10977,-0.048012,-0.55964,0.35427,0.48754,-0.07337,0.01713,-0.6626,-0.42173,-0.78155,-0.57382,-0.67272,-0.9059,0.8528,-0.96317,-0.74439,-0.062386,0.37265,-0.96344,-0.038472,0.39885,-0.72373,-0.011812,0.74629,0.078697,-0.26312,0.2035,-0.42835,0.95258,0.86821,0.43642,0.43517,0.60088,0.4548,0.16952,0.44293,-0.17695,0.4326,0.89377
0.58114,-0.47713,-0.51581,-0.3337,0.91936,0.40615,0.86079,0.73714,0.29559,-0.86297,0.30529,0.65769,0.41807,-0.901,-0.62985,0.23852,0.64473,0.040097,0.59837,0.24096,0.94758,-0.999,0.26572,0.71294,-0.064932,-0.26852,-0.68987,-0.27469,-0.0040865,-0.75534,-0.011318,0.0025903,0.14442,0.52731,0.14603,0.46037,0.049805,0.32718,-0.90193,-0.66478,0.30448,0.65142,-0.17325,-0.42038,0.45093,0.6109,-0.26939,-0.023055,0.098814,-0.34537
0.49717,-0.31484,0.39365,0.71668,-0.43609,0.33902,-0.80803,-0.86609,0.91745,-0.21968,0.39219,-0.28639,-0.40582,-0.57909,-0.3899,-0.50387,-0.10139,0.83803,0.22281,0.96057,-0.59127,0.92309,0.51676,-0.19391,0.73578,-0.96538,0.62692,-0.038952,-0.11835,-0.80316,-0.24379,0.030309,-0.79306,-0.69312,-0.047064,0.60118,0.30383,-0.10959,0.72607,0.45561,-0.66559,-0.77777,-0.020824,0.96024,0.31433,0.49446,0.10892,0.58726,-0.59388,-0.92478
-0.98036,-0.97309,-0.4631,-0.94746,0.86635,0.37618,-0.75614,0.22281,0.031337,-0.48232,0.55945,-0.38644,-0.54621,0.72838,-0.37204,-0.71035,0.91548,0.89038,0.54699,0.015124,0.085545,0.95227,-0.027857,0.12632,-0.15611,-0.057113,0.040165,-0.95358,0.8463,-0.71084,-0.13329,-0.098292,0.65963,0.77659,0.1863,0.69993,-0.69357,-0.70937,-0.87811,-0.55875,-0.51991,0.12556,0.11973,0.86932,0.41016,-0.59329,0.27881,0.15031,-0.016346,-0.20362
-0.6132,0.40165,-0.11842,-0.57044,-0.48971,0.97712,-0.022776,-0.31133,-0.97431,0.51035,0.75687,0.34767,0.80505,-0.77832,0.99652,-0.028775,-0.10311,0.90058,0.1078,0.62317,-0.96185,0.58562,-0.46517,-0.97459,0.77523,-0.73668,0.58442,-0.6641,-0.34252,-0.35535,0.79532,0.66858,0.63715,0.92398,0.87514,-0.058388,-0.82443,0.15874,-0.025049,-0.48741,-0.22934,0.74853,0.064047,-0.49422,-0.99105,-0.6316,0.50747,-0.048585,0.32845,0.96865
-0.23041,0.69847,-0.8075,-0.030573,0.56437,-0.87933,0.84502,-0.46065,0.65719,0.75806,-0.53998,-0.88767,0.24013,0.92994,0.57158,-0.23045,-0.86162,-0.0071085,-0.41277,0.37823,0.15744,-0.63041,0.24304,0.57075,-0.25701,0.68971,0.21679,0.5571,0.079138,0.60278,-0.36716,-0.053917,0.55342,0.8943,-0.97473,0.72877,-0.5058,0.98286,0.26794,-0.0043979,-0.35866,0.63437,0.00090805,0.40403,0.67032,-0.50747,-0.097851,0.07612,-0.76624,-0.50724
-0.12249,-0.15885,-0.4018,0.79752,-0.38388,0.24324,-0.73033,0.14026,0.25307,0.73752,0.60072,-0.34638,-0.53549,-0.19267,0.40093,-0.90472,-0.61771,0.15289,0.18121,-0.92672,-0.12841,-0.70193,0.67996,-0.028918,-0.73511,0.91481,0.53429,0.04275,0.13018,0.94836,0.41961,0.45764,0.53247,-0.21013,-0.43778,0.26849,-0.72413,-0.27431,0.43672,-0.99353,0.15547,-0.86178,-0.90886,-0.54559,0.24336,0.74622,-0.95845,-0.91965,-0.55878,-0.99006
0.78459,0.62198,0.92806,0.44658,-0.45761,-0.02647,-0.71124,-0.73564,0.21677,-0.57501,0.50644,0.76656,0.2,-0.63526,0.66836,-0.93359,0.11432,0.98023,-0.67259,-0.77464,-0.61643,-0.48287,-0.60356,-0.33632,-0.14126,-0.60774,0.88255,0.40386,-0.30308,-0.26527,0.59662,-0.19447,0.50891,0.56141,-0.84863,-0.55841,0.43521,0.048102,-0.29558,-0.91393,0.9744,0.093497,0.68404,0.4052,-0.41111,-0.13421,-0.60689,-0.076905,-0.12238,0.34009
0.86057,0.97983,-0.16662,0.73924,-0.70675,-0.39055,-0.33337,-0.73005,0.41199,-0.10905,0.96467,-0.17783,-0.73137,0.12568,-0.2687,0.26237,0.89417,0.13791,-0.25714,0.97392,0.86102,0.23238,0.57397,0.048504,-0.22,0.47548,0.32805,0.3826,0.93168,0.82203,0.94023,-0.76794,-0.49441,0.67769,0.33855,-0.71972,-0.97263,-0.29705,0.42647,0.16905,-0.46311,0.97441,0.61129,-0.25522,0.11589,-0.40787,-0.48083,0.43491,0.38135,-0.46468
0.20473,-0.13362,0.84436,-0.18605,0.96662,-0.70799,-0.090016,0.87006,0.07012,-0.95517,-0.77781,0.0043313,-0.89262,-0.17527,0.65938,-0.38112,0.23005,0.22804,0.80396,-0.48076,0.61533,0.88873,0.076782,0.59265,0.96507,-0.88882,0.47249,0.57479,-0.0059691,0.28143,0.063755,-0.21951,0.62377,0.52491,0.25605,-0.71018,0.2367,-0.9729,0.060685,0.75878,0.15615,0.57805,-0.89475,0.52871,-0.7774,-0.1318,0.032639,0.19475,-0.093075,0.13176
0.45795,0.92435,0.25307,-0.81034,-0.87448,0.91101,-0.98322,-0.32873,-0.87772,0.5531,0.43373,-0.28551,-0.58803,0.57682,0.53335,-0.6246,0.62742,-0.69997,-0.17909,-0.85647,0.33489,-0.092657,0.018069,0.3371,0.95915,0.028988,-0.49764,-0.29292,0.76305,-0.82778,-0.19791,0.03816,-0.14739,-0.22157,-0.81328,0.54818,0.94786,-0.13443,-0.62266,-0.58763,-0.41574,-0.52725,0.78482,0.15763,-0.5553,0.17506,-0.50269,0.94209,0.86504,0.51819
0.78873,-0.12951,0.40473,-0.94113,0.49388,0.92098,-0.18332,-0.60476,0.11124,-0.19857,0.33337,0.97769,-0.54091,-0.84593,0.2945,0.53171,0.12916,-0.38586,0.66021,-0.96813,-0.39803,-0.436,0.11393,0.62913,-0.38508,-0.76243,-0.80698,-0.58022,-0.016467,0.04668,0.68133,0.40933,0.7385,-0.3101,0.33784,0.0021799,0.17262,-0.50435,-0.75963,0.9308,0.83668,-0.21978,0.50268,-0.30676,0.071152,0.4299,0.27429,0.32512,0.54587,-0.66267
-0.27632,-0.58512,0.1091,0.02814,-0.39383,0.74767,-0.63824,-0.85685,-0.8662,0.24666,-0.64404,-0.070214,0.28137,-0.94552,-0.9382,0.22155,0.075687,0.45232,0.94687,-0.0014991,-0.88615,-0.97643,-0.36194,0.87927,0.86375,0.2853,0.55025,0.33469,0.42725,-0.74401,-0.6675,-0.91234,-0.71077,0.95457,-0.78323,-0.33825,0.0096804,0.32116,0.29007,0.038066,-0.77123,-0.74423,0.83343,0.29579,0.19878,-0.64383,0.38666,-0.69672,-0.97958,0.88848
-0.59262,-0.59515,-0.23659,0.0013406,0.37285,0.50017,0.7467,0.82356,0.50398,0.9471,-0.29063,0.89364,-0.56063,0.6837,0.99908,0.43994,-0.98198,0.12822,0.1221,-0.57432,-0.85965,-0.79324,-0.17741,0.20851,0.59898,-0.67468,0.41398,0.30731,-0.24159,-0.90389,-0.051488,-0.54398,0.90276,0.60724,0.26644,0.66134,-0.69235,-0.20219,-0.73299,0.31244,-0.051274,-0.79057,-0.91461,0.58021,0.77291,0.77963,0.52127,-0.74061,0.85298,-0.13008
0.060562,0.51194,-0.092458,0.5748,0.2892,-0.24022,0.097758,0.91388,-0.92922,-0.24196,-0.22039,-0.79953,0.33812,-0.75864,0.55364,0.18813,-0.42246,-0.70853,0.36767,0.60545,0.34392,0.73639,0.8089,-0.11935,0.87482,-0.87666,0.40391,0.88648,0.77291,-0.55586,-0.6641,0.65946,-0.69419,-0.85915,-0.65645,0.46054,0.32629,0.82659,0.56494,-0.60487,0.59829,-0.33667,0.023973,-0.57136,-0.69884,-0.29109,-0.47789,0.82045,-0.79393,-0.89542
0.85441,0.88863,0.81461,0.63278,-0.76292,0.23572,0.72263,-0.28136,0.91724,0.39368,0.17016,-0.36087,0.32225,0.9053,-0.34508,0.4456,0.30993,0.10313,0.091569,0.13898,0.090398,-0.70769,0.73267,0.47978,0.23856,0.11701,-0.54522,0.21379,0.48889,-0.57045,-0.57283,-0.053943,-0.92016,0.32995,-0.38322,-0.92997,0.41837,-0.17545,-0.62502,-0.81613,0.65166,0.49044,0.19103,0.92843,0.99058,0.80279,-0.60929,0.83964,-0.1817,-0.19468
-0.5801,0.72096,0.35791,0.46053,-0.12874,0.4208,-0.89376,-0.80782,-0.25237,-0.095382,-0.61078,-0.21134,-0.39325,0.22434,-0.91443,0.81758,0.74362,0.25046,0.49818,-0.34037,-0.029991,0.4023,0.84507,-0.49149,-0.26438,-0.71124,0.83686,0.086819,0.73596,0.14291,-0.1095,-0.24722,-0.2257,0.5891,-0.32007,0.59467,0.16507,-0.16131,0.10103,-0.099337,-0.25219,-0.1755,-0.92757,-0.63113,-0.55024,0.14668,0.68033,-0.72261,-0.86519,0.72611
0.96404,-0.18659,-0.7654,0.54203,-0.43954,-0.88342,0.022078,0.78707,0.99358,-0.11303,-0.65375,0.67713,0.13367,-0.47297,-0.076047,-0.74584,0.42585,0.36702,0.28671,0.032346,0.12857,0.29366,0.12747,-0.19962,-0.18141,-0.26344,-0.064095,0.19976,-0.50261,-0.13615,-0.021094,-0.14874,-0.42206,0.49007,0.69733,0.51421,0.19925,-0.7059,0.24828,-0.40152,-0.4168,0.71423,-0.81341,0.37691,0.91314,-0.09709,-0.57447,-0.90135,0.45319,-0.89962
-0.16727,0.90277,-0.26014,-0.33482,-0.74019,0.1301,-0.70841,-0.23271,0.51746,-0.51248,0.83575,-0.67949,0.30705,0.39296,0.14571,0.52003,0.46808,0.34721,-0.7082,-0.17322,0.6176,-0.58379,-0.62735,0.56646,0.43915,-0.59762,0.12903,-0.41798,0.86537,-0.56177,0.94562,0.12297,-0.32021,0.0011472,-0.55811,0.38651,-0.95374,-0.0010608,0.39084,0.081561,-0.25088,0.18174,0.94272,0.75569,-0.66643,-0.042524,0.44082,-0.48537,0.88924,-0.90194
-0.46267,-0.061511,0.6953,0.17547,0.088202,0.090099,-0.12269,-0.68374,-0.83329,-0.66453,-0.29091,-0.53366,0.3314,0.052838,0.054428,-0.82272,0.5077,-0.41223,0.67603,0.085993,0.59098,-0.23284,0.35318,0.4292,0.26657,-0.99964,0.27361,-0.052358,-0.95124,-0.02905,0.29267,-0.05225,0.3174,0.52009,0.63014,-0.00026605,0.49865,-0.22863,0.72307,0.24225,0.97346,0.35635,-0.36929,0.92096,0.32866,0.47337,0.19543,0.8824,0.34244,-0.38285
0.46148,0.41456,-0.45037,0.61113,-0.33785,0.94786,-0.089479,0.28377,0.02548,0.28884,-0.86375,-0.67233,0.0068688,0.25796,-0.48942,0.36542,-0.87478,-0.71574,-0.73974,0.93894,-0.77559,0.5876,-0.2854,0.33313,0.14725,0.62,0.37484,0.22049,0.56699,-0.43516,0.92486,-0.60633,-0.25633,0.13054,0.14087,-0.61047,0.33571,-0.39568,0.10137,-0.41147,-0.13339,0.070209,0.15591,-0.1039,-0.33001,0.17225,-0.69961,-0.20444,-0.074273,-0.11601
0.06822,-0.018684,-0.12425,-0.67535,-0.8714,-0.76343,-0.36373,-0.92318,0.73387,-0.97465,-0.60717,0.13717,-0.93714,0.24129,0.61934,0.81822,0.55687,0.92669,0.37312,-0.85032,0.0021333,0.54586,-0.63964,-0.2657,0.62886,0.80614,-0.85611,0.51909,-0.69068,-0.039895,0.54433,0.68522,0.49945,0.54787,0.17546,0.3296,-0.98271,0.55519,0.84222,-0.33983,0.63087,-0.81538,-0.676,0.32032,0.026476,0.45339,0.14601,-0.23208,-0.69075,-0.16286
-0.24977,-0.26869,-0.36394,0.19149,-0.82489,0.26911,0.85103,-0.8663,0.31867,-0.97827,0.0070886,-0.69429,0.52669,0.44023,0.50989,-0.69164,-0.96674,0.14109,0.88061,-0.9056,-0.86047,0.56342,-0.17307,-0.64142,-0.70726,-0.11869,0.95993,-0.29894,-0.85349,0.36833,0.80985,0.14278,0.47708,0.2511,0.33064,-0.67249,0.2982,-0.75068,-0.86671,-0.9999,-0.87148,-0.21783,0.43831,-0.64418,-0.078121,-0.21534,-0.19664,0.52619,-0.84498,-0.090011
-0.23519,0.22757,-0.74886,0.89441,-0.18104,-0.7051,0.44303,0.077972,-0.86229,-0.17296,-0.21448,0.34125,0.57368,-0.90964,0.41667,0.87846,-0.30101,-0.59018,-0.089284,-0.44989,0.73385,0.019637,0.60192,-0.11461,-0.46725,-0.26833,-0.87655,0.87681,0.71118,-0.60394,-0.95057,-0.25047,-0.335,0.60859,-0.66486,-0.22239,-0.71239,0.077294,0.92658,-0.82677,-0.14449,-0.1056,-0.95198,0.14041,0.32203,0.77231,-0.32114,-0.68137,-0.085137,-0.6178
-0.56568,0.3069,0.28002,-0.12828,0.46328,-0.57129,0.27312,0.83651,0.85028,-0.35306,0.81061,0.79326,0.64786,0.61167,0.64206,0.88302,0.33579,-0.4724,-0.77723,0.23425,0.75756,-0.4861,-0.49743,0.6272,-0.25104,-0.27039,-0.43687,-0.71511,0.084542,-0.68142,0.86334,-0.80852,0.53563,0.091062,-0.087317,-0.69381,0.3044,0.70355,0.72972,0.9106,-0.96011,-0.88258,-0.31473,0.75073,-0.74655,0.92054,0.098702,0.69676,-0.2002,-0.91752
0.69029,-0.57204,0.39128,-0.47758,0.68923,-0.931,0.8916,-0.66657,-0.92129,-0.31077,-0.51323,0.3497,-0.23431,-0.21111,-0.33389,-0.12705,0.16516,-0.81846,-0.87677,-0.20561,0.78236,0.19966,0.32998,-0.6985,-0.79388,-0.42425,-0.079046,-0.29672,0.038229,0.75008,-0.51919,-0.24381,-0.46266,-0.50159,-0.28027,-0.89456,-0.33631,-0.25871,-0.90327,-0.62678,-0.23696,0.43384,-0.030789,-0.62207,0.087389,0.15603,0.71179,-0.33007,0.7884,0.25691
-0.85652,0.11742,0.86016,0.86823,-0.18352,0.5482,0.46066,-0.75078,0.98144,-0.51164,-0.53423,0.3159,-0.29279,-0.66997,-0.02287,-0.50819,0.58723,0.35705,0.55238,0.4137,0.27402,0.12912,-0.64607,-0.95861,0.47875,0.67019,0.63574,0.10677,-0.71688,0.29497,-0.67747,-0.8479,-0.6126,0.79028,-0.765,0.38466,0.29114,-0.29525,0.31865,0.39367,-0.17205,-0.403,0.96703,0.041267,-0.73517,-0.35053,-0.092501,0.26675,0.081399,0.59268
-0.27496,0.91261,0.55909,-0.64324,0.39685,-0.48467,0.043854,-0.97261,0.39927,-0.18029,-0.96787,-0.17189,-0.33896,0.79458,0.96202,-0.85709,-0.83976,0.88296,-0.99457,-0.22505,0.40167,-0.29108,-0.13583,0.61727,-0.34797,0.95176,-0.64839,0.89873,-0.86621,0.15496,0.92263,-0.6146,-0.92083,0.71017,-0.46876,-0.8633,0.22148,0.93037,0.80682,0.34476,0.11963,0.99185,0.063629,-0.17419,-0.16303,-0.91551,-0.29077,-0.93754,-0.48585,0.11967
-0.78083,0.76751,-0.35988,0.98492,-0.13501,0.5714,0.29448,0.52553,0.72397,-0.9038,-0.099956,0.31112,0.4049,0.78468,0.88997,0.70749,-0.84822,-0.6936,0.21353,-0.7488,-0.20484,-0.67788,-0.80836,-0.29477,0.19081,-0.57142,-0.94787,0.35846,-0.58348,0.14937,-0.072463,0.89389,-0.21369,0.17762,0.49369,0.14203,0.61886,-0.37887,-0.59504,-0.23076,0.76685,-0.83085,0.27608,-0.21848,0.25852,-0.20688,-0.17113,0.25996,-0.00056735,0.41173
0.82716,0.94266,0.2136,0.44383,-0.56546,0.21941,0.47201,0.44551,-0.66328,0.89639,0.39106,-0.20393,-0.23221,0.69014,-0.69496,0.18948,-0.0012562,0.33462,-0.2862,-0.288,0.56,0.046687,-0.39809,-0.55772,0.78378,0.33202,0.88555,-0.56065,-0.31099,-0.24372,-0.83715,0.61542,0.48422,-0.89478,0.21824,0.89946,0.77085,-0.55204,-0.74197,0.53912,-0.026891,-0.96958,-0.29644,-0.078276,0.021613,0.46036,-0.35659,0.55652,-0.54102,-0.54327
-0.91898,0.26361,-0.71777,0.058964,0.43751,-0.94084,0.74202,0.70888,0.38101,-0.92583,0.41189,0.17106,-0.93773,0.19403,0.98929,0.15161,-0.65013,0.5633,-0.21082,0.67605,-0.44194,-0.69032,0.43941,0.62225,-0.4242,-0.1185,-0.22346,0.31032,0.14207,0.52788,0.7245,-0.75107,0.45811,-0.0073133,-0.3307,-0.78234,0.44893,0.87799,0.24792,-0.48362,0.52812,-0.60064,0.9663,0.68385,0.86956,0.21394,0.81607,-0.11978,-0.6662,-0.85207
-0.54414,-0.18817,-0.98858,-0.43905,-0.17891,0.81945,0.73419,-0.50009,0.69696,0.06796,-0.08002,0.62352,-0.086716,-0.16452,0.25401,-0.29602,-0.8233,0.80241,-0.20682,0.43799,-0.74646,0.8101,-0.23292,-0.7912,0.48306,-0.17442,-0.73576,0.36068,0.66729,-0.88923,-0.94734,0.93233,-0.028861,0.51018,-0.29937,0.13272,0.11013,0.32477,-0.95183,-0.57865,0.34167,0.61433,-0.73945,-0.789,0.22501,0.43798,0.89965,-0.78269,-0.36499,-0.2032
-0.29752,-0.1124,-0.15861,-0.74908,0.83602,-0.25197,-0.54227,0.2298,-0.54097,0.047449,-0.80451,0.36372,-0.44117,0.11408,-0.83583,0.72925,-0.57548,0.018326,-0.1613,0.13329,0.71977,0.40102,-0.12321,-0.49354,-0.04687,0.6931,0.65062,-0.86171,0.89606,-0.23534,0.77999,0.20601,-0.73836,0.79488,-0.049597,-0.73581,0.38942,-0.18832,-0.32871,0.57601,0.61737,-0.059626,-0.45167,0.16763,0.99062,-0.49801,0.41025,-0.83313,0.20694,-0.36876
0.78197,-0.98639,0.78863,-0.73482,0.28971,-0.17207,-0.3979,-0.90278,-0.75021,-0.82666,0.29851,0.9369,-0.32744,0.087779,-0.1084,-0.86453,0.10476,-0.23274,0.65408,-0.44063,0.97909,0.86781,-0.98182,0.6105,-0.17051,0.004729,0.71597,-0.78272,0.092387,0.15447,0.61193,0.35321,0.37445,-0.83046,-0.27096,-0.77749,0.098617,-0.19037,0.82612,0.71739,0.98476,-0.37497,0.45957,-0.16472,0.9207,-0.89332,-0.81458,0.24964,-0.056427,-0.49556
-0.032075,-0.33034,-0.68812,0.49309,-0.23351,0.84915,-0.18019,-0.77441,-0.89764,-0.53652,0.25489,-0.41985,-0.89563,0.43696,-0.38788,-0.59788,-0.8226,0.50369,0.45212,0.17067,0.30853,0.052475,-0.65494,-0.39051,0.65539,-0.54196,0.53703,0.0078661,0.78565,0.38566,-0.22703,-0.51459,-0.47041,0.015079,0.4584,0.60673,-0.18356,-0.020852,-0.82564,-0.40025,0.65922,-0.42832,-0.082994,-0.42824,0.25683,0.51811,0.61825,-0.37177,0.55178,-0.737
-0.58117,0.53909,-0.37889,-0.3169,-0.28899,-0.087196,-0.61534,-0.30371,0.27903,-0.23303,-0.70208,-0.9685,0.079971,-0.25442,-0.10261,0.81657,-0.84775,-0.093315,0.81047,-0.22169,-0.8999,-0.45052,-0.8336,0.40411,0.048896,0.42409,0.77872,0.20832,0.60551,0.13685,0.31361,0.86967,-0.26908,-0.96614,-0.017665,0.79108,-0.66942,-0.33593,0.10497,0.64909,-0.58531,0.96051,0.69409,0.70576,-0.51016,0.57186,-0.45818,0.69892,0.64227,0.10201
-0.36369,0.29221,0.92178,-0.2577,-0.66515,0.93544,-0.6109,-0.056102,-0.84358,-0.15056,-0.59586,-0.17975,-0.23813,-0.51962,-0.45527,-0.61478,0.87979,0.14083,0.56526,-0.65357,0.65679,-0.53882,0.31026,0.3579,-0.04751,-0.13564,0.39519,-0.85487,-0.71327,-0.1773,-0.31609,0.066279,0.93438,-0.60293,-0.88382,-0.41979,-0.54224,0.92109,0.71792,0.0017412,0.75042,0.51659,0.97449,-0.35408,-0.13564,-0.83073,0.37364,-0.83882,-0.4377,-0.36697
0.79857,-0.10396,0.93576,-0.18154,0.15299,-0.60501,-0.70071,-0.84094,0.54141,0.54724,0.32543,0.71444,0.99688,0.33761,-0.52236,-0.73772,0.016187,-0.35314,-0.34619,-0.95151,0.83935,-0.37683,-0.13018,-0.43731,0.72157,-0.16811,0.30255,0.24467,-0.18121,-0.42331,-0.56485,-0.98245,-0.99324,-0.2515,0.96684,0.13113,-0.75252,0.75383,-0.17668,-0.33114,-0.73491,-0.73912,0.74743,-0.90532,-0.1635,0.5323,0.82672,0.51923,0.31499,-0.39222
-0.98603,0.88055,0.70962,0.66727,0.38262,0.57077,0.71041,0.36406,0.11426,0.70593,-0.34111,0.96565,0.05924,-0.92664,0.91359,0.55009,0.96672,-0.46316,-0.59669,0.8292,-0.82854,-0.26867,0.28497,-0.61014,-0.73868,0.86253,-0.12645,-0.42251,-0.64958,0.43853,0.69693,0.94092,-0.1572,0.45305,-0.85484,-0.96034,-0.60082,0.0083411,-0.17988,-0.70688,-0.22589,0.25441,-0.19172,0.4735,0.81533,0.5597,-0.81255,0.38715,-0.75592,0.31736
-0.65223,0.95718,0.78343,0.23755,0.21518,0.67654,0.86136,0.050575,-0.81187,0.89149,-0.4391,0.63235,0.77288,-0.22883,0.68048,0.42731,0.43826,0.46174,0.31002,0.69247,0.85247,0.98909,0.03583,-0.46095,-0.75086,-0.70576,-0.0069932,-0.92226,0.033324,0.57844,-0.82775,0.76033,0.53015,0.27972,-0.21127,-0.39027,-0.87551,-0.78559,0.31644,-0.47445,-0.72894,-0.085124,-0.3817,-0.94789,-0.74629,0.5834,-0.40607,0.40773,0.51455,-0.18312
0.53548,-0.015638,-0.32227,-0.65826,0.89287,0.54346,0.55914,0.031733,0.45692,-0.76353,-0.17699,-0.62111,0.63115,0.56612,0.76423,-0.061897,0.4263,-0.98546,-0.78218,0.74153,0.77572,-0.69405,-0.73675,-0.68129,-0.73567,-0.96032,-0.054184,-0.13039,-0.94889,0.75738,0.80547,0.29467,-0.33525,0.96174,0.48191,0.81821,0.7816,0.13673,-0.35097,0.29952,0.94304,0.3526,0.17794,-0.98804,0.96904,0.62896,0.54023,-0.6758,-0.95595,-0.019643
-0.64886,-0.11662,0.7497,-0.81983,0.51479,-0.22702,-0.68341,0.88078,-0.15978,-0.62456,0.70712,-0.92054,-0.35062,-0.31304,0.85343,-0.28555,-0.41216,0.29657,0.77193,0.50468,-0.51467,0.66479,-0.14142,-0.47847,0.30543,-0.15197,0.16644,-0.66892,0.56519,0.3373,0.33331,-0.82154,-0.98083,-0.22308,0.38967,0.18711,0.46118,-0.23776,-0.69746,-0.84238,-0.84621,0.41437,0.60315,-0.14879,-0.55157,0.18412,0.037946,-0.34462,-0.076293,-0.79579
0.01468,0.59531,-0.46142,-0.51044,-0.58345,0.89663,0.45833,-0.73655,0.34169,-0.78175,-0.39094,0.21183,-0.46767,0.13204,0.90657,-0.72982,0.89011,-0.59095,0.17462,0.22416,-0.20036,-0.4525,0.9869,-0.7689,0.95645,0.8936,0.44278,-0.57737,0.27576,-0.37029,-0.64713,0.28386,0.76705,-0.75381,-0.97636,0.16308,-0.75602,0.20059,-0.1138,0.62203,0.54537,-0.65276,0.21732,-0.77138,0.44662,-0.00097402,0.23421,0.50421,-0.503,-0.81008
-0.4124,-0.75901,0.57978,-0.82017,0.226,0.080744,-0.61299,0.30156,0.61335,-0.091062,0.51937,0.46108,-0.44438,-0.36348,-0.87496,-0.77576,-0.18852,0.30899,0.56257,-0.59795,-0.79148,0.82539,-0.23869,0.095837,0.17727,0.46154,0.047307,0.34986,0.061645,-0.26371,0.22297,-0.85363,0.7949,0.74201,0.088992,0.73437,-0.61242,-0.89716,0.95293,0.1709,0.54511,0.0092651,0.73047,-0.77853,0.71428,0.16061,-0.76164,-0.76868,0.44429,-0.5152
0.7465,0.65472,0.11834,-0.64585,0.40968,0.094069,-0.083631,0.69437,0.77957,-0.59565,0.094391,-0.90355,0.50888,0.98616,0.81556,-0.034738,-0.80109,-0.44667,0.19326,-0.48582,0.91265,-0.056594,0.67788,0.32011,-0.16553,-0.37618,-0.39581,0.31723,-0.73388,-0.096347,0.98822,-0.4006,-0.83866,0.58441,-0.20149,0.66858,-0.20688,0.39527,0.67802,0.49837,-0.36984,0.063763,0.89449,0.20075,-0.41841,-0.75069,0.12109,0.735,0.70258,0.41398
0.64697,0.49257,-0.87569,-0.6335,0.70763,-0.40635,0.71081,-0.30819,0.33643,-0.43336,0.55564,0.58445,0.95785,-0.94535,0.73714,0.8518,-0.91954,0.71718,-0.65101,-0.98082,-0.65024,0.97223,-0.90262,-0.11727,-0.98208,-0.68985,-0.19494,0.079856,-0.45276,0.82997,-0.33311,0.25058,0.4956,0.70688,-0.38176,-0.71106,0.45203,0.55043,-0.46105,0.30118,-0.18226,0.072318,-0.3524,-0.25765,0.92007,0.58196,0.91295,0.10514,-0.87338,0.61659
0.99764,0.17364,0.21769,-0.40778,-0.017052,0.49823,-0.73649,-0.8637,0.65791,-0.31968,0.57412,-0.20944,0.28492,-0.45492,-0.9779,-0.5477,-0.20978,-0.2175,-0.83908,-0.32141,0.018348,-0.82544,-0.6404,-0.021698,0.79168,0.97823,-0.3221,-0.017659,0.93303,0.37455,-0.10374,-0.94243,-0.96351,0.65476,-0.028758,-0.8939,-0.252,0.63552,-0.45761,0.94313,0.10516,-0.1685,0.93383,-0.60448,-0.22041,-0.46491,0.45485,0.74301,0.33543,0.45401
-0.25091,-0.39403,0.51787,0.25665,0.72476,-0.76352,0.22774,-0.97704,0.93602,0.22075,0.88763,-0.88043,0.70448,0.0046743,-0.51809,-0.82106,0.19572,0.45045,0.6575,0.49878,-0.15415,0.20741,0.40642,0.9046,0.95057,0.7058,-0.46489,-0.96064,0.035324,0.57989,0.0066025,-0.68274,-0.83836,0.96764,0.99706,0.75505,-0.42944,0.77604,0.061949,0.95552,-0.13006,0.1119,0.039995,0.088756,0.22352,0.56072,0.84665,0.95022,0.35243,-0.9156
0.016189,0.17018,0.91454,0.52745,0.36636,-0.66933,0.27682,-0.98642,0.49914,0.31334,-0.77473,0.24147,0.71048,-0.26065,0.85996,0.014143,-0.97798,-0.43494,-0.69306,-0.43681,0.26884,-0.92334,-0.40429,-0.60446,0.98283,0.34719,-0.12233,0.76372,-0.0036965,0.33247,-0.89008,0.45714,-0.44561,-0.35131,0.91111,-0.16039,-0.78858,0.3621,0.38651,0.40237,-0.76415,0.35124,0.46593,-0.1888,0.55873,0.73324,-0.89337,0.23726,-0.92579,-0.78673
0.497,0.14975,-0.86147,0.025525,-0.75605,0.9829,0.50406,-0.41505,0.1623,0.95935,0.73318,-0.66962,0.11772,-0.55612,-0.079649,-0.39807,-0.39911,-0.21648,-0.87703,-0.99229,0.093644,-0.41229,-0.15351,0.67428,0.84456,-0.46096,-0.7933,-0.35715,-0.42931,-0.88597,0.10428,0.064534,0.35457,-0.50703,0.63199,-0.7055,0.59345,0.80378,-0.1601,-0.75679,0.52941,0.023085,0.29294,0.77318,-0.38002,0.61569,0.45066,-0.44923,-0.087291,0.99948
-0.20017,-0.58706,-0.56526,0.36945,0.87678,-0.86532,-0.48665,-0.56468,0.90495,-0.15258,0.69939,-0.34135,-0.49382,-0.22723,-0.1045,0.54992,-0.30502,-0.44051,0.17977,-0.93902,-0.74181,-0.029355,0.067549,-0.40202,-0.63569,0.8051,-0.71067,0.29774,-0.35837,-0.87088,-0.10549,-0.60663,-0.36004,-0.62128,0.93364,-0.54887,0.023567,0.72727,0.20946,0.63046,0.32366,0.12983,0.37187,-0.34946,0.94381,-0.31741,-0.83556,-0.97551,-0.75736,0.66332
0.86331,-0.88579,0.49513,-0.38347,-0.98618,0.51679,0.097314,-0.3962,-0.57034,0.67073,-0.40974,-0.46011,-0.24674,0.60853,-0.85693,-0.98525,0.37638,0.13147,-0.068882,0.3829,-0.0096345,-0.66268,0.54327,0.28613,0.12415,-0.46859,0.721,0.61986,0.85385,-0.58783,-0.63,0.83657,-0.91707,-0.95713,-0.32113,-0.38518,0.20706,0.29845,0.20399,0.46619,0.71899,-0.81157,-0.25838,-0.25973,0.62687,-0.56658,0.44748,0.91076,-0.10066,0.71605
-0.14463,-0.54093,0.342,-0.41557,-0.67496,-0.13472,0.87608,0.19079,-0.58802,-0.62106,-0.53328,0.082171,0.090086,0.56925,0.0058212,-0.49773,-0.32642,-0.24602,-0.075264,-0.45559,0.00072313,0.21786,-0.52397,-0.038701,-0.0001116,0.7073,0.12948,0.84299,0.63168,0.035846,-0.76916,-0.56946,0.33688,-0.46775,0.76601,0.52652,-0.90459,-0.19517,0.6936,0.86374,0.86893,-0.05976,0.41801,-0.11855,0.90187,-0.78738,-0.90797,0.39004,0.80506,-0.52726
-0.91556,0.97803,0.13387,-0.23276,0.26284,-0.71699,0.90013,0.12739,0.97074,-0.21753,-0.045582,0.70745,-0.91036,0.31083,-0.23845,0.33042,-0.74635,-0.74118,0.81867,-0.80267,-0.14495,0.0092976,0.25121,-0.87747,0.72882,-0.16174,-0.79889,0.60344,0.66265,-0.82283,-0.72898,-0.29423,0.14612,-0.46807,-0.25361,-0.37288,-0.15905,0.06779,-0.45701,-0.8049,-0.060337,-0.66396,0.1005,-0.77832,-0.15544,0.60687,0.17093,-0.69721,-0.96668,0.98567
-0.68489,0.61278,-0.70365,-0.38584,-0.58807,-0.89986,0.21103,-0.56401,0.032894,0.12421,-0.61788,-0.13558,-0.33062,-0.28515,-0.30169,-0.60788,0.066066,-0.69485,-0.68112,-0.23706,0.20749,0.5713,0.436,-0.033506,-0.26281,-0.82863,0.26144,-0.24366,0.85479,0.17674,0.89872,-0.68352,-0.64335,0.83253,-0.63054,-0.9593,0.6783,-0.92938,-0.23477,0.52689,0.64778,0.44209,-0.093762,0.061085,-0.25979,0.024422,-0.39763,0.26898,0.8232,-0.22802
-0.2773,-0.91402,0.93904,-0.1752,0.36328,0.93166,0.62114,-0.21883,-0.52362,0.91368,0.82797,0.15604,0.60516,-0.32197,-0.98686,0.98724,0.80849,0.41476,0.58796,0.26669,-0.82478,-0.71815,-0.56226,0.27623,0.80704,0.87092,-0.036926,0.61771,0.5265,0.30356,0.095824,-0.25986,0.056965,-0.031893,-0.49309,0.66009,-0.2122,-0.75665,0.71576,-0.23548,-0.82132,0.9643,0.40947,-0.72156,0.30694,-0.10531,-0.17077,-0.59129,-0.38273,0.30856
-0.88229,0.084796,0.98455,-0.098601,0.10071,-0.54328,-0.36979,-0.32375,-0.22755,-0.91156,-0.36828,-0.72704,-0.012871,-0.8946,0.53948,0.51236,-0.43454,-0.46451,0.34546,-0.31795,-0.56918,-0.31151,-0.021438,-0.2297,0.23061,0.64714,0.71003,-0.92164,0.42388,-0.27907,-0.81995,0.47419,0.89913,0.99714,0.16144,0.98355,-0.17813,0.13435,-0.58534,-0.018004,-0.40074,0.83784,0.44476,0.29674,0.76337,0.16948,0.91721,0.87211,0.70192,0.72222
0.68672,-0.47061,-0.39316,-0.53749,0.56588,-0.22581,-0.45573,0.49175,-0.57434,-0.87093,-0.78253,0.16308,-0.4824,0.72572,0.94149,-0.34306,0.055213,0.6703,0.83799,0.26188,-0.2753,-0.70935,0.77182,-0.47602,0.5442,0.86491,0.84265,-0.59038,-0.97657,0.33336,0.65305,-0.94,0.90275,-0.94468,-0.061905,0.95855,-0.43846,0.97967,-0.72501,0.12341,-0.8416,-0.18732,-0.62408,0.9152,0.63077,-0.375,-0.60306,-0.54512,-0.86534,-0.17587
0.77997,0.018232,-0.89245,0.83656,-0.45826,-0.704,-0.14251,-0.26201,-0.40321,0.81667,-0.12144,0.34241,-0.43064,-0.8523,-0.26888,0.082431,0.5896,-0.65861,0.1235,0.30629,-0.53964,-0.023157,0.99914,0.21561,0.46314,0.27406,-0.34882,0.36284,-0.24841,-0.14472,-0.04791,0.12175,-0.80981,0.77738,0.46203,0.21072,-0.52383,-0.28238,0.73324,-0.77153,-0.30167,0.49297,0.78131,0.3285,0.1966,-0.59179,-0.012019,-0.6978,-0.5114,0.1266
-0.88221,0.16422,0.92263,0.64172,-0.50106,0.16246,0.49452,-0.15356,0.3761,0.38794,0.075753,0.67388,0.63385,0.36921,-0.13033,-0.043305,-0.3909,0.35419,-0.59722,0.83333,-0.71952,-0.060299,0.57312,-0.16615,0.94711,0.97303,0.90516,0.24098,0.87633,0.69022,0.81779,-0.56358,0.54242,-0.058208,0.64763,0.15806,0.76684,0.84122,0.54991,-0.81845,0.61846,-0.12208,-0.52306,0.59161,0.0023586,0.27549,-0.82112,0.97292,-0.30773,0.023445
-0.59501,-0.90883,-0.14291,0.90323,0.87094,-0.1344,-0.070035,0.14287,0.24525,0.70858,-0.90165,0.26881,0.18269,0.14717,0.74179,-0.56646,-0.97083,-0.51392,-0.48979,0.43638,0.4358,0.68109,-0.67434,-0.27152,0.58282,0.2585,0.46686,0.72496,0.023383,-0.9694,-0.61003,0.83634,-0.14674,-0.68935,0.58482,-0.28099,-0.93611,-0.066384,0.52665,0.095376,0.40049,0.69685,-0.68282,-0.15233,-0.16562,-0.029024,0.68162,0.9243,-0.10828,-0.47454
-0.82526,0.75163,-0.5687,0.65894,-0.70009,-0.79392,0.96748,0.17624,-0.7929,0.54474,0.10287,-0.57637,-0.21227,-0.1381,-0.81877,0.587,0.48994,0.29477,0.2444,-0.77412,-0.43195,0.065202,0.25384,-0.89984,-0.079682,-0.14183,-0.82017,-0.086117,-0.24632,0.5002,-0.12974,0.036128,-0.22682,0.30162,-0.29016,0.74453,0.45876,-0.096799,0.18954,-0.80999,0.95101,-0.10919,-0.92354,-0.70682,-0.020355,-0.79468,0.2889,0.72089,-0.74734,0.65293
0.14615,-0.032099,-0.37629,-0.52852,-0.5536,-0.98973,0.69731,-0.94251,-0.4279,0.9161,0.18286,0.8134,-0.77818,-0.027618,0.91748,0.27643,-0.43037,-0.33149,-0.24797,0.37005,0.13472,0.63467,-0.34722,0.009629,0.52985,-0.44597,-0.27326,0.8043,0.16339,0.63996,0.37669,-0.68639,0.83838,-0.29801,-0.70884,0.64788,-0.42294,0.91569,-0.36738,-0.70479,0.85132,0.43238,0.2232,-0.033877,0.84316,-0.87325,-0.98485,-0.13552,0.046335,-0.10126
-0.12602,-0.61158,0.86901,0.20543,0.13901,-0.21126,-0.35628,-0.81774,0.20271,-0.2347,-0.44951,-0.18971,0.99297,0.35705,0.047732,0.52914,0.85598,-0.076576,-0.2821,-0.52433,-0.79707,0.50906,0.19907,0.24075,0.94421,0.65866,-0.15056,-0.73318,-0.84585,-0.77648,0.7656,0.66066,0.06132,-0.79774,-0.69208,-0.44839,0.21168,0.25499,0.27008,0.79118,-0.81214,0.31377,-0.14709,0.65971,0.062002,0.4442,0.91619,-0.041299,0.68846,-0.22322
-0.82238,0.96267,0.94572,0.081177,0.3376,0.762,-0.64281,0.0020425,0.73698,-0.15786,-0.16315,0.77727,-0.9894,-0.59358,-0.34455,0.47962,-0.98843,0.41303,-0.9427,0.75642,0.8918,-0.92194,0.49721,0.89339,-0.48794,0.85892,0.97153,-0.59135,-0.1529,0.92022,-0.068577,0.50292,-0.56288,-0.28792,-0.27725,-0.050001,0.54453,0.70963,0.49722,-0.47724,-0.72961,-0.8654,0.77552,-0.38595,0.57393,-0.51526,-0.55203,0.62965,0.34285,0.57642
0.55145,0.80527,-0.82108,0.55883,-0.42843,-0.41409,0.71045,0.83651,0.63137,-0.47839,-0.0017304,0.1501,-0.49695,-0.26344,-0.017987,-0.74567,-0.056346,-0.28669,0.53475,0.25917,-0.27029,-0.79126,0.72506,0.49296,0.83148,0.90915,0.5603,0.77495,0.50635,-0.1616,-0.83653,-0.31265,-0.42856,0.32592,-0.012152,-0.86629,0.89724,-0.33124,0.76026,0.70381,-0.88375,0.22714,0.11581,0.80049,-0.81281,0.40384,-0.54044,-0.15947,0.85657,-0.28316
0.46785,0.25562,0.93128,0.75409,0.048566,0.375,0.72076,-0.50477,-0.25016,-0.0050262,0.2263,-0.96658,0.34071,0.51979,0.4183,0.36805,-0.72453,-0.38484,-0.52523,-0.88691,0.27014,-0.41979,-0.87695,0.77056,-0.33082,-0.66617,0.11078,-0.34527,0.11154,0.072877,0.36133,0.24277,-0.44015,-0.70247,-0.0094378,-0.97741,-0.48955,0.091946,-0.23313,-0.92412,0.22671,-0.52768,-0.27306,0.072659,-0.79862,0.09397,0.55616,-0.9876,-0.10674,-0.86918
-0.70955,-0.26208,0.225,-0.26439,-0.55934,0.47634,-0.78999,0.30588,-0.034055,-0.98086,0.67656,0.080809,0.24238,-0.79,-0.61812,0.49457,-0.42862,0.48167,0.33183,0.3993,0.93184,0.089405,0.21461,-0.099228,-0.63709,-0.63927,0.2655,-0.6034,-0.70754,-0.066018,-0.81778,0.2227,-0.8006,0.46036,-0.14254,0.67987,-0.17028,0.2478,-0.80031,0.065851,0.6605,0.06563,-0.25355,-0.8665,-0.45793,0.53851,0.98459,-0.83071,-0.62314,-0.5169
0.23166,0.85672,0.60253,0.63355,0.13122,0.80717,0.52105,-0.86959,0.55565,0.75754,0.79279,0.7053,-0.15603,0.27826,0.12496,-0.28383,0.076302,0.56789,0.49698,-0.13899,0.068636,-0.75694,-0.16986,0.15466,-0.13132,0.89541,-0.81887,-0.46144,-0.6109,-0.43996,-0.88761,0.21799,-0.24673,-0.0070354,-0.82635,-0.80584,-0.94997,0.6318,0.48682,0.45194,0.18876,-0.63463,0.073419,-0.6524,0.89485,0.45823,0.093694,-0.09354,-0.18213,0.11923
0.59641,0.79702,0.87745,0.42041,-0.27042,0.44173,-0.72178,-0.96733,-0.56202,-0.34018,-0.026612,-0.55484,0.26055,0.51112,0.23536,-0.61877,-0.32498,0.071254,0.45688,-0.53078,-0.93471,0.21133,-0.17186,0.24492,0.52115,0.26414,0.34179,0.082768,0.89093,0.48968,0.97552,0.19207,0.46118,-0.060533,0.53433,0.0089299,-0.061875,-0.14618,-0.65838,-0.98699,-0.28081,0.96804,-0.87574,-0.86525,0.95107,0.12156,-0.79486,0.92539,-0.78058,-0.80261
0.64046,-0.89589,-0.84382,0.39318,-0.019768,0.28774,0.21413,0.040179,-0.68965,-0.61198,-0.49853,0.27401,-0.92131,0.29241,-0.69584,0.14878,0.6274,-0.57227,0.62858,0.32744,-0.33197,0.32014,-0.25395,-0.5212,0.83272,0.092873,-0.93844,-0.85283,0.54698,-0.90744,-0.53237,-0.94134,-0.17351,0.14279,0.012792,0.67011,0.26024,-0.90893,0.53268,0.56486,0.94447,0.38428,0.20734,0.64363,0.44385,-0.4625,-0.88768,-0.41246,-0.72576,0.12647
-0.26275,-0.82378,0.90054,-0.52652,-0.12129,0.35475,0.58542,0.3047,-0.50619,-0.43581,-0.69585,0.42496,-0.10808,0.33683,0.90516,-0.4753,0.046594,-0.233,0.48017,0.18277,-0.83222,-0.27881,-0.51479,-0.73966,0.0035734,0.29321,0.11576,0.39448,0.55773,0.0348,0.62457,-0.2255,-0.51904,0.28264,0.85858,0.30604,0.28467,0.58588,0.3603,-0.17165,-0.47395,-0.41911,-0.77853,-0.43676,0.33368,-0.30733,-0.54708,-0.33407,-0.77362,-0.73314
0.61987,-0.52276,-0.51577,-0.72876,0.8687,0.46385,-0.57642,-0.21169,0.95431,0.90014,0.2449,-0.33254,-0.34361,0.18457,-0.58011,-0.21654,-0.62778,0.2026,0.28903,0.51112,0.57606,-0.4669,0.015247,-0.49298,-0.25055,0.98047,0.98164,0.27802,0.097554,-0.67076,-0.71659,0.88774,0.11093,-0.467,0.10564,0.2402,0.0063195,0.56759,-0.56287,-0.62043,0.94535,0.34099,-0.63241,0.60596,0.73005,0.5281,-0.38091,0.44125,0.59232,0.49768
-0.87864,-0.33123,-0.56556,-0.40965,0.88994,0.79727,-0.9359,-0.23873,0.081518,0.28277,0.71734,-0.89843,0.595,0.48064,0.75274,-0.35792,0.76091,0.61732,-0.802,-0.34604,-0.19426,0.77784,0.95612,-0.53538,0.54316,0.62619,-0.46928,0.33331,0.38204,0.64211,0.57609,0.31951,-0.87581,-0.00927,-0.55173,0.35156,-0.19123,0.35828,0.070041,0.33777,0.10123,0.1481,0.015428,-0.74915,-0.13372,0.12081,0.62442,-0.71248,0.84398,0.23072
-0.8185,0.70858,-0.78102,-0.74656,0.69783,0.86753,0.60688,-0.26079,0.32929,-0.44182,0.78149,-0.081317,0.71121,-0.071839,-0.53515,-0.45971,-0.88877,-0.80986,0.9988,0.46499,-0.7394,-0.24976,-0.084229,-0.49964,-0.62047,0.82672,-0.34261,0.20683,-0.16548,0.53289,0.07449,0.86266,-0.78691,0.72257,0.37428,0.65848,0.13231,0.90132,0.226,0.87445,-0.10934,0.6352,0.0077815,-0.23829,-0.4791,-0.76994,0.7118,0.51262,-0.12006,0.48574
0.61117,-0.96985,0.07815,-0.23007,-0.79699,-0.11784,-0.92139,0.50626,0.34615,-0.38554,-0.68584,0.73122,0.84669,-0.71284,-0.082642,-0.99061,0.074996,0.53547,-0.16381,-0.94125,0.41725,0.34874,0.95261,-0.58985,-0.046011,0.11824,0.99685,-0.25965,0.41653,-0.69307,-0.52879,0.77184,-0.24905,0.38617,-0.43665,-0.12328,0.15278,-0.21166,0.72479,-0.401,0.79688,-0.49909,-0.18334,-0.58553,-0.14649,0.18942,-0.71139,0.65019,-0.29313,-0.66944
0.093962,-0.48307,-0.493,0.9292,0.65006,-0.29775,0.482,0.2238,0.22726,-0.11433,0.19346,0.55171,-0.40811,-0.36257,0.80945,-0.37429,0.26293,0.74686,-0.84804,-0.78284,0.32308,-0.35237,-0.91285,0.57817,0.16232,-0.37427,0.32363,0.065958,0.32607,0.69962,-0.18166,0.41676,0.903,0.033435,0.72696,-0.89156,0.50905,-0.74491,-0.94441,0.82215,0.004735,-0.53261,0.26515,-0.63212,0.70666,-0.16697,-0.57393,0.34648,0.50291,-0.6299
0.79025,0.44251,0.67094,-0.5468,-0.42485,0.86173,-0.32136,-0.5217,-0.86673,0.7832,0.66957,-0.31596,0.80518,0.6957,0.17293,0.32218,0.76095,0.66195,0.48251,0.75666,-0.44247,0.61844,0.1043,-0.069998,0.71471,-0.11209,-0.56129,-0.3765,-0.89216,-0.41639,-0.67314,-0.11503,-0.82411,0.51847,-0.44421,-0.55828,-0.75773,0.30611,0.13155,-0.26061,0.83783,-0.46094,0.51702,0.46911,0.60068,-0.14316,-0.94663,-0.57666,-0.037167,0.86696
-0.62628,-0.82299,-0.80299,-0.43506,0.054614,0.90794,-0.16782,0.85052,-0.078174,-0.34933,0.62014,0.4964,-0.80947,0.31564,-0.92037,0.013846,0.50832,0.83422,0.99942,-0.34315,-0.012967,-0.82165,0.75076,-0.84038,0.34291,-0.46808,0.13698,-0.62338,0.57914,0.44604,-0.11784,0.62726,0.81016,-0.80322,0.28421,0.76332,0.3461,0.7824,-0.81634,0.065254,0.86542,-0.57138,0.28673,0.51798,0.78428,-0.75048,-0.32617,0.99386,0.13372,-0.46662
0.66492,0.72401,0.58644,0.45143,-0.79405,-0.86272,-0.61241,-0.23623,-0.29799,-0.25092,0.59525,0.24959,-0.21002,-0.22208,-0.44522,0.75626,-0.25202,-0.18163,0.097938,0.96308,0.48375,-0.31851,-0.40104,-0.8871,-0.6131,-0.71457,-0.29614,0.71873,-0.41868,0.0075233,-0.14634,0.71051,0.0047102,-0.06825,0.039738,0.12951,0.69552,-0.67777,-0.31138,0.23001,-0.77011,0.94337,0.48438,0.95333,-0.72438,-0.319,0.35265,0.74383,-0.62651,0.74168
-0.87472,-0.66668,0.12265,-0.70959,-0.09708,-0.31647,0.89411,-0.25309,0.21044,0.55096,0.75681,0.45619,0.35601,0.83403,-0.49725,-0.84778,0.69376,0.76697,0.18628,0.18436,-0.061639,0.0016312,-0.87411,0.29687,0.86703,0.5341,-0.91257,-0.09614,-0.77977,0.48439,-0.37178,-0.62802,-0.49084,0.48572,0.43154,-0.61439,-0.43576,0.063691,0.53282,-0.14484,0.4756,0.88796,-0.26827,0.36563,0.54835,-0.27331,0.91062,0.6132,-0.18792,0.24089
0.20006,-0.096864,-0.99875,0.69083,-0.39617,-0.97247,-0.72889,-0.34045,0.22432,0.31486,-0.19713,0.34023,-0.69316,0.055206,-0.57028,0.92879,-0.012891,-0.044709,-0.69118,-0.48099,0.77454,-0.73642,0.18798,-0.76218,0.19786,0.21802,0.80554,0.11993,0.76919,-0.60257,0.88376,-0.29358,-0.40385,0.79732,-0.021525,-0.84378,0.52996,-0.070821,0.11387,-0.74145,0.32365,0.78437,-0.20435,0.64524,-0.38798,0.20774,-0.89996,-0.0048378,-0.25751,-0.85817
-0.87986,-0.43245,0.066314,0.53021,0.23211,-0.20778,-0.061252,0.80757,-0.39156,-0.98798,0.67577,-0.029648,-0.86948,-0.68219,0.35226,-0.73418,-0.73622,-0.93736,0.2733,-0.29541,-0.28141,0.93118,-0.61855,-0.0031798,0.30779,-0.56445,-0.50235,0.37756,0.16397,0.62183,-0.50764,0.13222,0.21093,-0.79813,-0.54813,-0.62035,-0.045621,-0.44503,-0.70628,0.30605,0.53162,-0.93224,0.14483,-0.6777,-0.59888,0.34786,0.42332,0.057339,-0.80248,0.68588
-0.53293,0.095471,-0.5756,0.62126,-0.28277,0.21017,0.70268,-0.067767,0.67817,-0.82486,0.25209,0.148,-0.78725,0.38603,0.10663,0.19389,-0.077972,0.91555,0.092148,-0.025197,0.51823,-0.18284,-0.40851,0.23762,-0.24914,-0.061291,-0.931,0.5748,0.24961,0.69645,0.99625,-0.63038,-0.7122,-0.3943,-0.17624,0.93072,-0.66522,0.60894,0.76713,0.53962,-0.73873,-0.39981,-0.82145,-0.8552,-0.15939,-0.56981,-0.5367,-0.54818,0.85818,0.46269
-0.56059,0.94288,0.17316,0.79918,0.22252,-0.70779,-0.50635,0.016401,-0.65427,-0.50049,-0.58602,0.60077,-0.80708,0.56681,-0.59443,-0.2427,-0.76933,0.10581,-0.43117,-0.44663,-0.85197,0.94247,-0.52921,-0.54605,-0.34386,0.58936,-0.72546,0.59899,-0.76754,-0.68824,-0.88755,-0.068811,-0.76024,-0.74915,-0.44282,-0.24189,0.53419,-0.15199,-0.8636,0.04838,0.95893,-0.3143,0.66216,-0.044479,-0.90029,-0.69859,-0.67998,0.045614,0.50564,0.15133
-0.4815,-0.70241,-0.075828,0.77217,0.70632,-0.18756,-0.13721,0.58946,-0.98896,-0.47677,-0.24716,-0.10075,-0.20822,0.6929,0.97222,-0.20374,-0.42466,-0.43184,0.31545,0.60413,-0.9784,0.27418,0.26161,0.92451,-0.93577,0.17215,-0.49969,0.86816,-0.52616,0.39043,0.72721,-0.63346,-0.76747,-0.00061346,-0.32327,0.46324,0.92153,-0.86061,-0.33732,0.2358,0.34353,-0.57169,-0.87087,-0.27012,-0.43163,-0.75365,0.48756,-0.54848,-0.81963,-0.97549
0.19857,0.73664,0.37722,-0.96877,0.70775,-0.84894,0.98841,-0.7298,-0.56602,-0.77508,0.41752,-0.44797,0.97034,-0.085415,-0.9431,0.57651,-0.1897,-0.2018,0.98846,-0.46817,0.17104,-0.07876,-0.92446,0.5,-0.1231,0.82713,-0.23954,0.40152,0.98557,0.24722,0.17231,0.18284,-0.93312,0.52324,0.38417,-0.75524,-0.52416,-0.70871,-0.94679,-0.36259,0.75405,0.96828,0.18013,0.3052,-0.82075,-0.48513,0.94201,-0.35472,-0.30972,0.60382
0.38983,-0.023159,-0.5093,0.11166,0.093048,0.23144,0.8553,-0.59001,0.069786,-0.010433,-0.94249,0.45168,0.13791,-0.82208,0.30117,0.076659,-0.85983,-0.36022,0.019775,-0.61929,0.71404,-0.49688,-0.10182,-0.22325,0.64222,0.50403,0.87589,0.44835,0.7088,-0.9991,0.17354,0.56199,-0.8805,0.33312,0.45008,0.22272,-0.8973,0.048179,-0.43873,0.18701,-0.89176,-0.38746,0.10328,0.56275,-0.91704,-0.93037,-0.2595,-0.5682,-0.47146,0.91604
0.84426,0.18181,0.87487,0.55722,0.27772,-0.33513,-0.91396,-0.61965,-0.31506,-0.057543,-0.43377,-0.20583,-0.43545,-0.72875,-0.80555,-0.093206,-0.21856,0.56803,-0.58952,0.48647,0.15943,-0.64408,-0.5725,-0.41204,0.3046,0.61866,-0.93058,-0.61094,0.82046,-0.0091053,-0.21243,0.31094,0.54888,0.24272,0.18109,-0.52568,-0.78001,-0.42816,-0.58675,0.74562,-0.01726,0.40697,0.81782,0.24694,-0.38579,0.70036,0.31042,-0.043726,-0.040604,0.55364
0.31115,-0.99322,0.37421,-0.84145,-0.3681,-0.82974,0.095432,-0.99622,-0.66851,0.072238,0.24466,-0.22232,0.33725,0.14264,-0.23448,-0.97154,0.52989,-0.98865,0.26487,0.35907,0.90651,0.17805,-0.22443,0.79646,0.98894,0.45403,-0.24368,0.77261,0.33696,-0.17147,-0.02907,-0.8799,0.45061,-0.62087,-0.86897,0.56157,0.60408,-0.099486,0.54219,0.83473,-0.024058,-0.095395,-0.56941,-0.91448,0.6609,0.45504,0.36313,-0.0031986,-0.012612,-0.32968
0.26729,-0.028888,0.86106,-0.51575,-0.84423,0.50231,-0.99701,0.71555,0.22367,0.86851,-0.79344,0.21187,0.23871,0.24708,-0.35134,-0.36351,0.86968,0.46963,0.36617,0.40179,-0.32368,-0.68096,-0.93268,-0.22801,0.19975,0.69076,-0.6435,-0.061225,0.56314,-0.8904,-0.0063627,0.37491,0.79711,-0.15264,-0.52392,-0.38392,-0.22024,0.58523,-0.81283,-0.41179,0.16361,0.88195,-0.41215,0.10764,-0.97822,-0.17414,-0.74665,0.66703,0.84152,0.47755
-0.1964,0.46289,-0.16414,-0.08915,-0.97659,0.49347,0.44952,-0.97998,-0.43025,-0.87582,-0.26027,-0.96281,0.83093,0.39431,-0.82083,-0.45397,0.87744,0.21196,-0.089743,-0.67204,-0.36665,-0.19662,0.88907,-0.97585,0.037343,0.23178,-0.93031,0.81482,0.82456,0.13705,0.60246,0.32371,-0.61354,0.90939,-0.71997,-0.41397,0.14329,0.65112,-0.56871,0.1773,0.82325,-0.24175,0.72314,0.64901,0.70534,-0.70788,0.93506,-0.30793,-0.67062,0.98421
-0.28432,0.073943,0.62786,-0.069612,0.27453,-0.53712,0.23754,-0.98263,-0.39536,-0.83138,0.0022872,0.38165,-0.5852,-0.16854,-0.45858,-0.19617,-0.37979,0.33178,-0.83112,-0.22942,0.47706,0.27635,-0.081277,-0.73275,-0.85559,0.22704,0.75123,0.082617,-0.6043,0.73376,-0.14206,-0.89344,-0.38015,-0.72986,0.60726,0.77251,-0.70696,0.15459,-0.82491,-0.17208,0.50731,0.77997,0.80835,0.049028,-0.31816,0.095367,-0.51507,-0.91262,0.67784,-0.61021
-0.092025,0.97303,-0.1199,0.77831,-0.037731,-0.37078,-0.25533,0.68097,0.0014366,0.60396,-0.3527,-0.072002,-0.89802,-0.72253,0.79567,-0.54002,0.29539,0.67289,0.98098,0.27084,-0.70233,0.40142,0.58103,0.26492,0.32591,-0.98064,0.94203,-0.70172,0.434,0.91025,0.21205,0.52665,-0.5386,0.11923,0.60864,-0.34333,0.011529,0.56409,0.56942,0.13684,0.77185,-0.51145,-0.84814,0.94907,-0.28029,0.61486,0.065514,0.60859,0.53342,-0.62736
0.67787,0.0031039,0.52495,-0.46114,-0.90722,-0.6763,-0.41168,0.54009,0.05738,0.018653,0.79098,0.5382,0.40612,-0.37981,0.35406,0.36687,0.83834,-0.83128,-0.9213,-0.69399,0.9916,-0.10416,-0.78616,0.10318,-0.17978,0.12629,0.16163,0.7356,-0.5732,0.048248,0.26525,-0.9307,-0.97441,-0.90468,0.34276,-0.73741,0.8911,-0.28879,0.18211,0.52486,-0.65083,-0.80746,0.7341,0.063475,-0.21037,-0.27338,0.66288,0.36199,0.076622,-0.098613
-0.21997,-0.90055,-0.98247,-0.75029,0.101,-0.91538,-0.88972,0.71432,-0.97168,-0.22041,0.40398,-0.3301,-0.68055,0.42471,-0.0036014,-0.271,0.29215,0.39008,0.48264,-0.67349,-0.45571,-0.44954,0.52095,-0.49445,-0.48033,0.70815,-0.26124,0.4948,0.4199,0.56245,0.051385,0.79548,-0.78279,-0.60892,-0.16365,0.056062,0.80231,-0.93452,-0.35853,0.19282,-0.8521,-0.57301,0.84455,0.88349,0.34097,-0.053408,0.36459,0.64777,-0.71182,-0.94166
0.77935,-0.77907,0.99006,-0.5272,-0.31438,0.10759,0.40138,0.8669,-0.76381,-0.76257,-0.7589,-0.67584,0.34211,-0.5751,-0.078494,-0.61467,-0.63309,-0.314,0.17387,0.62258,-0.69873,-0.86588,0.94548,-0.20615,0.52726,-0.096218,0.82656,0.54039,0.4629,-0.9241,-0.19189,0.41447,0.29475,0.017188,-0.27976,-0.57356,-0.16563,0.71347,0.25383,-0.18039,-0.46143,-0.074409,0.79421,0.5423,-0.72288,-0.10249,0.034287,-0.73491,0.20259,-0.35427
0.6229,-0.057066,-0.84988,-0.48604,-0.95958,0.34327,0.78593,-0.96985,-0.7217,0.31048,0.9901,0.16942,-0.86337,0.46761,0.10155,-0.75886,0.70001,0.50609,0.91322,0.64573,0.49405,0.038275,-0.81575,-0.6512,0.76142,-0.32339,0.27514,-0.51934,-0.11091,-0.72443,0.37917,-0.82108,-0.27982,-0.15205,-0.77275,0.81143,-0.090638,-0.32069,0.8067,0.82514,-0.57459,0.62082,0.34245,0.97688,-0.21605,0.42456,-0.18046,-0.88928,0.80152,-0.34603
0.6445,-0.66976,-0.66079,-0.84092,0.28917,0.97511,0.45205,-0.62031,0.52417,-0.47821,0.88784,-0.5068,-0.9405,-0.22132,-0.33865,0.30347,0.95674,-0.73735,-0.20026,0.75512,-0.6667,0.11188,-0.24862,0.5251,0.096722,-0.82966,-0.059418,-0.72714,0.7316,-0.94263,-0.14954,-0.33235,0.71662,0.85823,-0.82186,-0.1546,-0.35771,-0.20849,-0.48221,-0.67365,-0.34265,0.28158,-0.23983,0.08435,-0.36429,0.6163,-0.70979,0.67904,-0.53558,0.14309
0.72979,-0.08896,0.028393,0.34022,0.099204,0.79737,0.17104,0.38821,-0.58606,0.040894,0.57476,-0.80321,0.68323,-0.95779,-0.62696,-0.37585,-0.35017,0.44192,0.027284,-0.7621,0.59712,0.61744,0.031593,0.58608,-0.097073,0.78977,0.78013,0.57601,0.54485,0.626,-0.5226,-0.72329,-0.038068,0.2147,-0.62221,-0.026367,-0.80099,0.54348,-0.21545,-0.70162,0.32164,0.1171,-0.56266,0.389,0.65156,-0.55725,-0.50911,0.57839,0.20588,-0.18454
-0.32251,0.23374,0.55812,0.049695,-0.1702,-0.7029,0.90442,0.9546,0.0070276,-0.93189,0.24355,-0.18036,0.50785,0.30166,-0.7697,-0.85944,-0.49118,-0.94995,0.58668,0.28235,0.52753,0.21669,-0.99208,-0.043271,0.87052,-0.11059,-0.64133,0.77509,-0.61142,-0.34977,0.54888,-0.52154,-0.68716,-0.23876,0.8369,-0.83841,-0.13799,0.88959,-0.6066,0.21141,-0.039675,0.35943,-0.25106,-0.056032,-0.7845,-0.40228,0.39774,0.97825,0.38521,0.33391
-0.87347,-0.77003,-0.28243,0.36778,0.60938,-0.82313,-0.2785,0.15052,-0.53249,0.92531,0.90142,0.64638,-0.80443,0.26872,0.17179,0.29992,0.13724,-0.19077,-0.20918,0.12485,-0.82635,0.01454,0.89477,-0.82876,-0.83317,0.78716,0.60064,-0.29324,-0.14193,0.81995,-0.60013,0.94215,-0.35341,-0.88248,0.55025,0.92555,-0.37042,-0.74846,0.6392,0.64135,-0.57676,-0.34697,0.16743,-0.49049,0.87732,0.96062,-0.16333,-0.94323,-0.93541,-0.14233
-0.46627,-0.83486,-0.41329,-0.017045,-0.68285,-0.2948,-0.8175,0.12474,0.32426,0.86468,-0.77782,-0.67202,-0.58303,0.43686,-0.27132,0.6978,0.46589,0.71632,-0.67868,0.71402,0.96552,0.084183,-0.096952,0.23634,-0.26392,0.05435,0.82457,0.07599,-0.84747,0.84931,-0.33322,0.94209,0.18521,0.086427,0.69774,-0.041434,0.97557,0.31982,-0.88636,-0.23472,0.66226,-0.09201,-0.51031,-0.64914,-0.17509,0.40832,-0.69536,0.51194,-0.35367,0.88886
-0.81486,-0.96198,-0.69588,-0.43514,0.50436,0.70132,-0.026166,0.88355,0.28362,0.045507,0.75383,-0.58865,-0.8261,0.60323,-0.84934,-0.79734,0.25863,0.64297,0.13891,0.49533,0.34627,-0.09261,0.96628,0.94309,-0.93374,-0.093987,0.58188,-0.19648,-0.65498,0.88405,-0.30785,0.6139,0.79766,0.052731,0.99294,-0.6567,-0.1319,-0.84736,-0.092267,-0.021318,-0.55818,0.33082,0.87069,0.77753,0.55697,-0.19872,0.62677,-0.66998,0.19176,-0.026411
0.34262,-0.82555,0.81055,0.048242,-0.025243,0.40652,-0.66883,0.37271,0.69934,0.25489,0.53613,-0.80491,0.73148,0.36173,-0.3388,-0.31528,-0.94498,-0.33292,0.19433,-0.93831,-0.42747,-0.45744,-0.53375,0.0021929,-0.90799,-0.97173,0.62504,-0.8043,0.16861,-0.093206,-0.12144,0.84615,0.50202,0.7931,0.49705,-0.882,-0.19726,-0.13823,-0.50479,-0.47863,0.44659,-0.35216,-0.16128,0.40931,-0.13122,-0.24613,-0.80786,-0.38602,0.11304,0.48731
0.88983,-0.17175,-0.45439,0.84964,-0.15935,-0.67381,-0.48535,-0.33768,0.7478,0.69116,0.37015,0.54026,-0.95082,-0.44603,0.18825,-0.57674,-0.40843,0.30414,0.64171,0.70709,-0.46113,0.65836,-0.26522,-0.048375,0.28118,-0.46435,0.21906,0.58364,-0.34573,-0.61413,0.68099,0.36449,0.44029,0.47,-0.89643,0.61413,-0.21048,0.8847,-0.25684,-0.57696,0.32303,-0.26214,0.301,-0.82401,-0.62184,-0.33601,0.74656,-0.27213,-0.4808,-0.67804
0.31262,-0.11595,-0.31623,0.50594,0.36248,-0.60422,-0.99651,-0.31989,0.89366,0.75089,0.4385,0.96944,-0.49687,0.30892,0.0036829,-0.81759,-0.75811,-0.2189,0.98676,-0.062528,0.012451,-0.054324,-0.47432,0.99849,0.020373,0.59733,0.80065,-0.50323,0.65018,-0.72351,0.59626,0.28801,-0.73259,0.1944,-0.95904,-0.97693,-0.67462,0.20714,-0.68384,0.16719,-0.54803,0.38851,-0.90888,0.32237,-0.84135,0.4666,0.030934,-0.14748,-0.51172,-0.40048
-0.16728,0.71243,-0.9002,-0.0062988,0.98867,0.87509,0.5265,0.86874,0.61713,-0.89166,0.21247,-0.11722,0.23125,0.52956,0.5626,-0.49477,-0.7126,-0.11585,-0.31478,-0.028241,0.14416,0.28713,-0.9735,0.43416,0.1236,-0.58926,-0.94501,-0.076063,0.48531,-0.038848,0.33153,-0.0065015,0.5516,0.71113,0.61874,-0.60494,-0.16497,-0.87533,0.17783,0.61815,0.48368,-0.2207,-0.30457,0.81878,0.81993,0.084922,-0.67258,0.82387,-0.33761,0.46041
-0.51679,-0.51893,-0.59075,0.7847,0.96615,-0.47523,0.52759,-0.38501,-0.84658,-0.85746,-0.72895,-0.73874,-0.063228,-0.41605,0.64679,-0.58595,0.46579,0.20228,-0.99876,0.03159,-0.61643,0.19342,-0.85925,-0.060429,-0.4371,0.28563,-0.53698,-0.42917,-0.98497,-0.87017,-0.49329,0.98375,0.19086,-0.79737,0.37091,0.42233,0.017615,-0.47852,0.11189,-0.13383,0.78444,-0.14468,-0.41147,0.46788,-0.27541,0.10567,0.49168,0.52605,0.76692,0.49626
-0.29802,0.6867,0.047371,0.83328,0.99628,-0.91849,-0.96865,-0.92247,-0.39998,-0.60919,0.13553,-0.51,0.47671,0.63698,0.79443,0.23211,-0.077762,0.97774,-0.8739,-0.22308,0.18477,-0.7281,-0.24347,-0.96198,0.35746,0.38734,0.88889,-0.79943,0.53763,0.73308,-0.30149,0.44814,0.98048,0.11241,0.84704,0.0034531,-0.43562,0.40984,-0.71228,0.0023412,0.4431,-0.55626,-0.38369,-0.48995,0.75708,-0.7244,-0.13953,0.32314,-0.078415,0.92615
0.39948,-0.25032,-0.52542,-0.089902,0.03981,0.29765,-0.7525,0.13556,-0.78954,0.083278,-0.30734,0.73273,-0.60956,-0.84456,0.13916,0.7837,0.067291,-0.85088,-0.068082,-0.23141,-0.13404,-0.50277,0.11975,0.030554,0.25373,-0.80585,0.28011,0.17185,-0.68168,-0.67395,-0.089581,-0.24019,-0.96876,-0.39469,0.68277,0.64835,0.30414,0.89796,0.95889,0.35049,-0.17794,0.50498,-0.78712,-0.67388,0.049348,0.36876,-0.68461,0.69069,-0.90375,-0.8763
-0.022566,-0.96197,0.18405,-0.34738,0.32932,-0.22657,-0.83912,0.3017,0.40581,0.092586,0.35653,-0.86856,0.096516,0.81776,-0.92001,0.43282,-0.42166,-0.28739,0.97446,-0.5904,-0.74577,-0.34234,-0.5279,0.39458,0.41789,0.47869,0.018963,-0.98906,0.16803,-0.19769,0.41345,-0.84088,0.66641,0.87381,0.15914,-0.66603,0.24347,-0.34937,0.47422,0.52027,0.43111,0.54983,0.71682,-0.49429,-0.15785,-0.42425,-0.82998,-0.8758,0.25294,0.66214
0.64074,0.49223,0.62602,-0.32642,0.62096,0.40909,-0.84385,0.47738,-0.094597,-0.47626,-0.32176,-0.87932,-0.081762,0.99535,0.91497,0.73044,0.68072,-0.58786,-0.92091,-0.78248,-0.68083,-0.89024,0.18174,-0.85053,0.23073,0.95221,0.24338,-0.52512,0.97178,0.4147,-0.001875,0.46517,-0.71721,-0.1607,0.53646,0.6899,0.41726,-0.17156,-0.78606,0.034703,0.88317,-0.12845,-0.94719,0.33006,0.778,0.84007,0.7279,-0.9866,0.8715,0.21883
-0.34007,-0.67112,-0.22714,-0.48686,-0.54548,-0.86156,0.18249,0.91275,-0.30079,-0.58125,-0.34335,-0.47996,0.94275,-0.1624,0.79878,0.6765,-0.683,-0.19359,-0.26685,0.43008,-0.56611,0.44114,0.78702,-0.83611,-0.10086,0.5148,-0.0056744,0.98675,-0.98033,-0.18684,-0.30318,0.027469,0.89144,-0.94917,0.71642,-0.40216,-0.49388,0.36068,-0.81645,0.28469,0.87082,-0.8571,-0.73838,-0.044159,-0.23738,-0.75257,0.55427,-0.8654,0.26505,-0.25079
-0.81187,-0.9601,0.56576,-0.53008,0.34233,0.86207,-0.0077441,-0.38789,0.6107,0.4724,-0.57104,-0.10607,-0.3516,-0.46818,-0.69532,-0.96087,-0.95414,-0.2776,-0.65994,-0.95538,-0.41199,0.58285,0.30194,0.24712,0.45497,-0.58691,0.22267,0.4944,-0.13993,0.51177,0.61294,0.044696,-0.31437,-0.52861,-0.21094,0.16622,-0.019354,-0.98545,0.054715,-0.7752,0.13329,0.32896,0.60138,-0.024946,-0.26737,0.51375,-0.46597,-0.84056,0.42763,0.65611
0.66352,0.17068,0.43001,-0.28007,0.03713,-0.49013,-0.014122,0.51821,-0.88545,-0.18781,-0.25643,0.35032,-0.59478,-0.48007,0.33235,-0.33751,0.19874,0.57356,0.73332,0.99535,0.56117,0.95648,0.0077816,-0.17388,0.96963,-0.64998,-0.77805,-0.82187,-0.10122,0.71785,-0.65375,0.62871,0.20929,0.49817,-0.76034,0.94428,-0.35634,-0.13123,-0.35392,-0.58096,-0.92932,-0.13749,-0.16674,-0.42552,-0.56287,-0.11266,-0.4307,0.78558,-0.92901,-0.43237
-0.14664,0.59819,0.99949,-0.43319,-0.51732,0.345,0.2964,-0.43735,-0.62345,0.03098,-0.11784,-0.47703,0.13455,-0.31977,-0.88466,-0.88749,0.29691,0.090729,0.27637,-0.84816,-0.35249,-0.80163,0.28878,-0.16259,0.068952,0.82164,-0.52704,-0.86186,-0.85639,0.6771,-0.57018,0.66924,-0.86526,0.78998,-0.11146,0.71862,0.29455,0.21248,-0.040382,-0.032131,-0.87956,0.85658,0.91276,0.33132,0.77236,0.77633,0.21397,-0.40122,-0.083749,-0.81444
-0.4861,0.36321,-0.9594,0.97131,-0.12328,-0.49516,0.68149,0.80382,-0.44091,0.42116,-0.065949,0.39235,-0.033743,0.57716,0.73614,0.34529,-0.022095,0.41943,0.77414,-0.21537,0.14225,0.39822,0.51852,0.080296,0.55976,-0.4608,-0.96509,0.58678,-0.021892,0.35252,0.69076,0.89371,0.59044,0.46151,-0.56084,0.44256,0.96377,0.7781,-0.78956,0.25718,-0.62303,0.49289,0.055517,0.024379,-0.20437,0.6986,-0.90535,-0.76616,-0.42165,0.17513
0.21179,-0.40377,0.31833,-0.015757,0.24527,0.8889,-0.9657,0.34118,0.5061,0.98294,-0.47062,0.11109,-0.41516,0.27303,0.13659,-0.52384,0.98652,0.049952,0.52972,-0.33588,0.24867,-0.72837,-0.34215,-0.85036,0.98306,-0.62114,0.65361,-0.99104,-0.82599,0.041308,-0.13355,-0.026893,-0.4467,-0.42494,-0.7602,0.34383,0.56314,0.17774,0.95223,0.73573,-0.24771,-0.28028,0.97853,0.25081,-0.71567,0.29914,0.6711,-0.70158,0.93052,0.50111
