-0.82316,-0.7668,-0.87724,-0.16153,0.09812,0.54988,0.71883,-0.47863,-0.03198,-0.89544,-0.063654,-0.33105,0.045517,0.38289,0.99568,0.58274,0.27264,-0.52513,-0.11159,-0.31287,0.57601,-0.082128,-0.75879,-0.98048,-0.58254,-0.86905,0.7156,0.50695,0.25899,0.63234,0.97593,-0.31369,0.44679,0.13871,0.85602,-0.0064334,0.88284,0.56864,0.50904,0.27946,0.34246,-0.9185,-0.91987,0.88061,-0.70482,-0.41032,0.67177,-0.22183,0.50189,0.2884
-0.25577,0.78458,-0.049179,0.90198,0.80754,-0.19315,0.40703,0.81907,0.98374,0.42837,0.35979,-0.37648,-0.084442,-0.73845,-0.45627,-0.44276,0.86949,-0.50152,-0.77518,-0.0047587,-0.72421,-0.8975,-0.085374,-0.70828,-0.63974,0.97965,0.55351,-0.64993,0.92627,0.84262,-0.39183,0.60581,0.72953,-0.92953,0.23295,-0.30734,0.058134,-0.57618,0.76932,0.37106,-0.52098,0.16495,0.74697,0.97222,-0.67362,-0.59511,-0.44725,0.84371,-0.30074,-0.93033
-0.28782,0.26801,-0.86005,0.98534,0.41263,-0.94405,0.83887,-0.97585,0.22257,0.1474,0.19315,0.51793,0.4549,0.4096,0.95103,0.14877,0.022346,0.79426,0.85823,-0.44505,-0.36614,-0.86973,0.90713,0.14927,0.53948,-0.92064,-0.23376,-0.62446,-0.96969,-0.91265,-0.85462,0.19312,0.030258,0.035837,0.71986,0.64408,-0.84053,0.40827,0.10269,0.23171,0.73365,-0.58823,0.30081,-0.79237,-0.87627,-0.53163,-0.064543,-0.42526,0.93769,0.37547
-0.19622,0.89576,-0.22669,-0.6017,0.97199,0.71836,0.21563,0.45061,-0.38092,-0.80397,0.057636,-0.48172,0.34197,-0.076095,0.43533,0.8532,0.54134,-0.0015063,0.14964,-0.69797,0.86481,0.95175,0.50577,-0.92226,-0.81269,0.55582,0.12272,-0.71578,-0.17353,0.44536,0.16259,-0.79495,0.87044,0.96182,-0.28431,-0.66441,-0.95241,-0.57246,0.88146,-0.1287,0.70197,0.052441,0.95216,0.12707,-0.28297,-0.016512,-0.31539,0.53885,0.88215,-0.18284
-0.063397,-0.13539,0.24944,0.74051,-0.21359,0.74427,-0.3651,0.71305,0.43138,0.12826,0.91289,-0.73896,0.98741,0.024011,0.52519,-0.31761,0.096607,-0.29441,-0.45389,-0.42065,0.45603,0.7638,0.97992,0.10753,-0.23516,0.94651,-0.82424,0.58372,0.78034,0.97245,0.90773,0.47493,0.41404,0.34773,0.10599,-0.59953,-0.74586,0.39116,-0.083766,0.63791,0.95699,0.50832,-0.56926,-0.12134,0.97234,0.32981,0.020936,-0.2527,0.75682,0.24482
-0.71907,-0.13547,0.79882,0.39634,0.12521,0.8609,0.017082,0.046101,-0.67659,-0.69183,-0.19174,0.15599,0.94034,0.76309,-0.31729,0.1375,-0.53124,0.83752,-0.98772,-0.86146,0.74433,0.68127,-0.97188,0.72325,0.9043,-0.16974,0.17973,-0.78969,0.74873,-0.34109,0.96933,-0.97408,-0.042418,0.70109,0.099315,-0.078586,0.24665,-0.97172,0.75166,0.15782,0.64852,-0.21677,-0.55006,0.075651,0.46658,-0.50197,0.80865,-0.77198,-0.64602,-0.42637
-0.27828,0.77811,0.56145,-0.54893,-0.42054,0.20505,0.72532,0.18529,-0.58018,-0.090775,0.61329,-0.73343,-0.085371,-0.92505,-0.20027,0.48946,-0.26502,-0.015415,-0.30916,0.12511,-0.81862,0.80746,0.056961,0.38417,0.65392,-0.37845,-0.23931,0.57894,0.62088,-0.16434,-0.82198,0.86777,-0.27185,-0.6671,0.49714,0.92575,-0.88875,0.66329,-0.30772,-0.28263,-0.90138,0.44944,0.2399,0.51362,0.46429,-0.71816,0.089479,-0.65217,-0.42773,-0.28614
-0.75778,0.76906,0.16023,0.20017,-0.52016,-0.59799,-0.98437,-0.0082661,-0.67398,0.45211,0.99606,0.06224,-0.84741,0.71305,0.71735,0.62849,-0.19668,0.001978,0.62545,0.087849,-0.34769,-0.25296,-0.05042,0.96852,0.05523,0.20801,-0.8887,-0.56684,-0.07644,0.80994,-0.30859,-0.54193,0.26574,-0.24303,0.21477,0.90971,-0.53091,0.63444,-0.51056,-0.64582,0.78181,-0.45489,-0.20432,-0.19746,0.59736,0.087412,-0.23015,-0.42526,0.043306,0.27326
-0.14699,-0.007719,0.37219,-0.96155,0.43106,-0.47665,0.1748,-0.87815,-0.36031,-0.31088,0.25156,0.083942,0.7644,-0.23037,-0.79396,0.81072,0.53913,-0.022894,-0.25573,-0.9641,-0.60679,0.43861,0.90029,-0.28477,0.28065,-0.7305,-0.17883,-0.24746,-0.53219,-0.080422,-0.022284,0.30016,0.26044,-0.84172,0.0094208,0.73998,0.10176,0.66997,-0.83545,0.68624,-0.30998,-0.71596,0.075322,-0.38713,0.63345,-0.79928,0.94683,-0.43236,0.92463,-0.0031571
-0.66654,-0.37131,0.98365,0.4265,0.034137,-0.78903,0.69758,0.2791,0.24871,-0.405,-0.49937,-0.46757,-0.58552,-0.73577,-0.16708,0.76779,-0.5845,0.36279,0.68197,0.72401,-0.079155,0.96675,0.27383,-0.11939,-0.78698,-0.63551,0.016829,-0.76712,0.29693,-0.90979,0.79127,0.27071,0.79348,0.87,-0.7827,-0.39734,-0.010098,0.50849,0.52878,0.95283,-0.82065,-0.61101,-0.22972,0.096753,0.29401,-0.5124,-0.98716,0.88086,0.53412,0.12696
-0.35802,-0.31992,-0.69661,0.046858,-0.94881,-0.81337,-0.69854,-0.35887,-0.87541,-0.92388,0.74584,0.1724,0.92668,0.33086,0.57956,0.588,-0.48269,-0.54192,0.82148,-0.17643,-0.58547,-0.98264,0.81785,0.54205,0.39099,-0.090528,-0.77853,-0.98976,-0.6275,-0.44441,-0.069339,0.2484,0.44106,0.95337,0.0065417,0.66206,0.30891,0.59788,-0.29094,0.37767,0.8534,-0.43111,-0.48022,-0.17078,-0.79392,-0.85691,-0.51579,0.016473,0.055888,0.46471
-0.48947,-0.011194,-0.35255,0.46236,0.81151,0.43313,-0.32913,0.98625,-0.59018,0.082948,-0.88701,-0.53046,0.84968,-0.45194,0.041696,0.92923,0.82256,0.18048,0.18315,-0.54308,-0.70862,-0.095402,-0.27275,-0.14263,-0.42056,-0.34996,-0.68111,0.83679,-0.57349,-0.06973,0.85757,-0.65914,-0.3306,0.47356,0.20394,-0.47566,0.97449,-0.21691,-0.49677,0.034173,0.71007,-0.76654,0.35923,0.057644,0.052451,0.2295,-0.67879,0.9663,0.31156,-0.29934
-0.48312,-0.70265,-0.76332,0.062887,-0.56004,-0.54597,-0.58416,-0.52514,0.30187,-0.56314,-0.6018,-0.4379,-0.21767,-0.16543,-0.69506,0.92539,0.33415,0.059345,0.22303,-0.12313,0.60651,-0.41185,0.97876,-0.49934,-0.19988,-0.04637,0.67788,-0.23171,-0.7249,-0.23319,-0.94837,0.95133,0.68939,0.096178,0.70471,-0.014107,-0.93532,0.76852,0.65364,0.94705,0.65013,-0.87787,0.44356,-0.41699,-0.44521,-0.84208,0.034698,-0.53103,-0.23619,0.36406
0.050993,-0.92531,-0.81235,0.73242,-0.46367,0.58378,0.012725,0.29558,-0.52736,0.94128,0.85714,0.13201,-0.93899,-0.1494,-0.67552,-0.42028,0.53497,0.097732,0.21356,-0.70749,-0.068038,0.22647,0.2129,-0.63091,-0.91247,-0.90865,0.5738,-0.49624,0.99396,-0.38387,-0.87499,0.37958,0.02841,0.54317,-0.98959,-0.8934,-0.8842,0.70729,-0.38845,-0.81076,-0.46939,0.44014,-0.44412,-0.025234,0.42927,0.046665,0.58175,0.8667,0.13469,0.948
0.46978,0.78009,0.15768,-0.38672,0.6109,-0.3679,0.61592,-0.6355,-0.66416,-0.90525,-0.096536,-0.099287,0.30796,0.61055,-0.36283,0.76545,-0.71295,0.028446,0.81689,0.16753,0.91601,-0.11287,-0.66804,-0.059342,-0.53169,-0.94949,-0.21524,-0.048062,0.63399,0.11957,-0.62212,-0.45082,0.57489,0.43595,0.57548,-0.22205,0.93407,0.16708,-0.44425,-0.56067,0.53079,0.99017,-0.96065,0.75542,-0.54304,-0.010261,-0.33191,-0.44946,0.76282,-0.37826
-0.79275,-0.82564,-0.057237,-0.98874,-0.87249,0.65678,-0.95458,-0.37246,-0.47777,0.031114,0.56522,0.6891,0.58461,0.42437,-0.31273,-0.72008,0.038905,0.24145,0.6716,0.98364,0.814,0.7619,-0.78674,-0.62586,0.46954,-0.82311,0.6408,-0.34224,0.31039,-0.84512,-0.73818,-0.61837,-0.18481,-0.39373,0.38873,0.77457,-0.33601,-0.38714,0.51576,-0.82777,-0.64102,-0.45594,0.36576,-0.52763,-0.72709,-0.70211,-0.42736,0.43177,0.0023854,-0.91557
0.49111,-0.62554,0.78768,-0.62253,-0.60976,0.74157,0.93012,0.089404,-0.47506,-0.99304,-0.47526,-0.92616,0.91269,-0.74651,-0.18139,0.5718,-0.53816,0.38956,0.66478,-0.82171,-0.33582,-0.24744,0.98448,0.89678,0.44485,0.47187,0.62712,-0.38649,0.17862,-0.30947,-0.65103,0.029864,0.72509,-0.45003,0.55595,0.22646,0.064846,0.12815,0.87609,-0.8442,0.081088,0.83356,-0.14007,0.43438,-0.48313,-0.38196,-0.51412,0.36349,-0.067337,-0.14941
0.18525,0.33481,-0.68769,0.8223,-0.13973,0.29787,-0.30693,-0.36029,0.49299,0.54276,0.97752,-0.60884,0.11104,0.53081,-0.22959,-0.87471,-0.25496,0.75881,-0.075073,0.18597,-0.066323,0.43217,-0.47559,0.11688,0.37386,0.60593,0.45969,-0.62865,0.18625,0.98689,-0.23718,0.82183,0.37146,-0.64775,-0.46727,0.45764,0.80678,0.42246,0.43156,0.1262,0.68166,-0.90138,-0.31568,-0.37908,-0.5601,-0.63942,0.91869,-0.71312,-0.068421,-0.32888
-0.48777,-0.3793,-0.84548,0.79056,-0.94804,0.78556,0.17382,-0.79389,-0.75084,-0.68941,0.20094,-0.95734,0.30929,0.049804,0.034385,-0.99959,0.87036,-0.18908,-0.73185,0.94973,0.8169,-0.053815,0.64765,-0.062802,-0.32158,-0.6018,0.082884,-0.028813,-0.13804,-0.29308,-0.086601,0.63041,-0.014756,0.34329,-0.079241,0.36454,0.6504,-0.19789,-0.67396,-0.81532,-0.62795,0.544,-0.79195,0.41807,0.076922,0.87993,0.79587,0.28596,0.57636,-0.040383
-0.85732,0.71946,-0.34016,0.68066,0.2822,0.22261,-0.41215,0.5215,-0.087114,0.83227,-0.16004,0.12527,-0.55371,0.48517,0.86575,-0.38789,0.1962,0.21378,0.36673,0.79766,-0.59674,-0.45413,-0.51695,-0.60791,-0.0051757,0.83532,-0.94693,-0.0048048,0.055189,-0.040697,0.45938,0.35984,0.46592,-0.67661,0.66051,0.13667,-0.40308,-0.62522,0.30293,-0.30747,0.97034,0.54085,-0.54376,-0.87818,0.28031,0.66596,0.92468,-0.63459,-0.072156,0.69825
0.23558,0.45354,-0.58339,-0.48434,-0.94906,-0.87522,-0.7442,0.71691,0.18037,-0.25216,0.86993,-0.89233,0.0019402,-0.29991,-0.93725,-0.5293,-0.68074,-0.51389,-0.82989,-0.45321,0.38652,0.36675,0.63097,0.47648,-0.50458,0.79521,-0.14899,-0.41026,-0.33999,0.057863,0.68173,0.70231,-0.8214,-0.42509,-0.11904,0.64634,0.2382,0.091072,-0.31475,0.083865,0.67261,0.25127,-0.79264,0.91666,0.12266,0.28078,0.50319,-0.26692,-0.17352,-0.63761
-0.85417,-0.88963,-0.57656,-0.5826,0.14012,0.45272,-0.99656,-0.47945,0.68482,-0.01986,-0.26764,-0.3276,0.25373,0.99295,0.083686,-0.071371,-0.097764,0.010031,-0.87939,0.29263,-0.36979,-0.3444,0.23386,0.3393,0.16033,0.16735,0.56976,0.61843,-0.51731,0.72605,-0.72437,0.50712,-0.72308,-0.11563,-0.87624,-0.12727,0.80035,0.84895,-0.41395,-0.33077,0.087371,0.30045,0.050501,-0.047459,0.92343,0.36375,-0.06874,-0.46956,0.68546,-0.488
-0.74177,0.47504,-0.91993,-0.30364,-0.34544,0.58989,-0.63668,0.42595,0.73286,0.79835,0.17159,-0.083038,-0.30512,0.044515,0.012706,-0.45989,-0.36158,0.7129,0.38278,-0.7374,0.44132,0.73721,-0.37914,0.052911,-0.55961,0.36184,0.012795,0.44936,0.7021,0.019089,0.90691,0.32204,0.38536,0.18558,0.52766,0.79491,0.77132,0.1258,0.3558,0.24138,0.6134,0.46929,-0.98813,-0.54983,0.52571,0.27739,-0.99887,-0.5135,-0.22978,-0.97489
0.60226,0.38866,0.96575,-0.13721,0.96641,-0.47995,-0.45823,-0.084884,0.43422,-0.49728,-0.64245,0.7504,0.16657,0.56004,-0.2143,-0.87204,-0.30159,-0.88529,0.04618,0.45186,-0.25156,0.46868,-0.95953,0.51536,0.11476,0.6696,0.23075,-0.65848,0.82808,0.89294,0.3602,-0.33954,0.43823,-0.79951,0.87787,-0.37284,-0.84314,0.93146,-0.14996,-0.10039,-0.25484,-0.56354,-0.57859,-0.0045511,-0.87839,-0.81183,-0.37127,0.99329,0.76034,0.29647
-0.032171,0.80871,-0.56988,0.19499,0.37852,-0.17362,-0.75228,0.031517,0.69393,0.18861,0.19784,0.37917,-0.69147,-0.94324,-0.98147,0.66137,0.5436,0.37697,0.835,-0.12578,0.47395,0.17803,0.2621,-0.51174,-0.47839,0.50968,-0.072279,-0.38201,-0.24247,0.88941,0.077213,-0.052087,0.73134,0.47906,-0.97262,0.44147,0.25734,-0.5347,0.76206,0.43588,-0.14953,-0.63809,-0.30903,-0.19329,0.21596,-0.73067,-0.6987,0.83538,0.48748,0.35643
-0.88994,0.84035,-0.20176,-0.24525,-0.54868,0.87971,0.47639,-0.34644,-0.72302,0.63468,0.11632,-0.53646,-0.84098,-0.51486,0.96055,0.78712,0.37352,-0.50435,-0.089703,0.07993,-0.87095,0.36869,0.96015,0.84084,-0.9198,0.15637,0.21972,0.37629,-0.23693,0.40381,0.87727,-0.88972,-0.35202,-0.74084,-0.89999,-0.54142,0.85309,-0.35874,-0.10265,0.19282,0.42956,-0.12695,-0.92981,0.51432,-0.63057,-0.36044,0.96867,0.53438,0.50095,-0.36035
0.33357,-0.36676,-0.87677,0.93054,-0.35646,-0.28417,0.61825,-0.20542,-0.73159,-0.77319,0.16405,-0.022628,0.17478,0.4294,0.79601,-0.82575,-0.55657,-0.74909,0.57313,-0.75129,0.32279,0.72289,0.28678,-0.40741,-0.83948,-0.20009,0.37581,-0.29348,0.049094,-0.60338,-0.15938,-0.50213,-0.0014517,0.55938,-0.8365,-0.66552,0.42044,-0.92126,0.48544,0.30853,-0.68576,-0.81498,0.91868,0.17236,-0.011064,-0.54517,0.77602,0.29514,0.055181,0.85682
-0.89227,-0.066981,-0.1063,-0.35057,-0.28189,-0.87252,0.06786,0.033357,-0.47313,0.071384,-0.30181,0.31377,-0.27471,-0.12791,0.45882,0.54876,0.94947,-0.79856,-0.24173,-0.37844,-0.096819,-0.89872,0.62753,0.76466,0.67156,-0.91476,-0.50449,-0.7276,-0.56501,-0.97711,0.26799,0.48249,0.33117,0.66182,-0.18037,-0.67289,-0.092663,-0.85259,-0.98005,0.90891,0.07786,0.53153,0.37241,-0.14793,-0.49937,0.73586,0.70279,0.98352,-0.021975,-0.17985
0.59621,-0.72484,0.4802,0.15591,0.65769,0.54543,0.80217,0.071984,-0.48571,0.64135,-0.61318,-0.58678,-0.57402,-0.017704,-0.16981,0.60866,-0.59448,0.1422,-0.18148,0.038949,0.048773,-0.906,0.31686,0.66417,-0.24238,-0.90095,0.065775,-0.6776,0.91955,0.84051,-0.14915,-0.83398,-0.82593,0.94927,-0.13223,0.07605,0.64798,-0.69359,0.83554,-0.31195,0.12251,-0.11533,0.25717,0.9165,-0.13509,-0.56275,0.69408,-0.81054,-0.71459,-0.47473
0.24305,-0.81181,-0.71019,-0.69997,-0.39848,-0.62837,-0.81344,0.94607,-0.73111,0.28329,0.095194,0.95734,-0.85993,-0.62775,-0.90914,0.89112,-0.12614,0.42176,0.84613,0.050778,0.65256,0.80314,0.26665,0.020828,-0.028986,-0.39339,-0.11606,0.4032,-0.62326,-0.0061087,0.30479,0.11908,0.5418,-0.45275,-0.65682,0.48804,-0.70599,0.30072,-0.94063,0.89246,0.03429,-0.74378,0.059116,-0.91728,0.012547,-0.53712,-0.40596,-0.67067,0.9309,0.17458
-0.15702,0.078304,0.023448,0.27724,0.19293,0.82306,-0.81376,0.98297,0.72705,0.15376,0.59672,0.8427,-0.04554,-0.51482,0.70475,-0.66081,-0.074768,0.12514,-0.50305,0.121,0.96379,-0.85632,0.16982,-0.34624,0.76374,0.47083,0.20935,0.92621,0.20856,-0.52992,-0.64703,0.9137,0.61719,0.98805,0.13329,-0.65158,-0.43841,-0.33981,0.55933,0.49809,0.94379,-0.43483,-0.16094,-0.57547,-0.89159,0.1331,0.81915,0.55973,0.77332,-0.63467
-0.71368,-0.72595,0.62053,0.22164,0.0347,0.041126,0.1952,0.60811,0.16369,0.35591,-0.26242,-0.76784,0.44949,-0.86123,0.60579,0.81919,-0.86417,-0.82017,-0.90307,-0.39706,-0.012778,-0.25179,-0.9143,-0.090057,0.95304,-0.38964,0.95607,0.69783,0.76596,-0.55133,0.84215,0.88706,-0.038262,0.94793,0.90702,0.47047,0.46123,-0.86055,-0.65024,0.83199,-0.55543,0.14737,0.34197,-0.11093,-0.64078,0.34947,-0.40151,-0.26495,0.072671,0.65458
0.23891,-0.3245,-0.47925,-0.32007,0.075433,0.4417,0.55074,-0.52962,0.8822,0.93264,-0.041438,0.87762,-0.50359,0.84077,0.037627,0.78384,0.93275,-0.51716,0.94632,-0.034215,0.23136,-0.77315,0.12603,0.75775,0.61594,-0.29216,-0.59139,-0.28861,-0.16423,0.54399,-0.25829,-0.26374,-0.28358,0.46797,-0.2877,0.30162,-0.17977,0.87724,0.37879,-0.55957,-0.58944,0.92515,-0.43335,0.40308,-0.11923,-0.96365,0.50037,-0.85692,0.84991,0.35633
0.6638,-0.29682,-0.64784,-0.9483,-0.27374,0.82572,0.7111,0.88928,-0.0049837,-0.89094,0.77953,-0.1733,-0.62445,-0.43882,-0.56935,0.41472,0.66032,0.27093,0.75761,0.61689,-0.21724,0.38504,-0.84955,-0.35888,0.049772,0.1159,0.41093,0.20805,-0.34541,-0.16099,0.66911,-0.67875,0.87745,0.34444,-0.0067888,0.63069,-0.18725,-0.3785,-0.62944,0.26643,-0.61555,0.36756,-0.88855,-0.11614,-0.28076,0.90979,0.14863,-0.20765,0.46838,-0.22444
-0.78049,0.0041257,-0.39815,0.46181,0.017018,0.85275,0.6458,-0.92678,0.42572,0.84076,0.65638,-0.52606,-0.89629,0.98448,0.90206,-0.09739,-0.46521,0.89724,0.58252,0.019014,-0.13409,0.85108,0.024883,-0.6327,0.68557,-0.61654,-0.17505,0.72642,-0.43314,0.54234,0.72997,-0.81954,-0.58214,0.49802,0.92951,0.88509,0.82534,0.75871,-0.52238,0.7347,-0.27372,0.021037,-0.7411,0.082204,0.43051,0.63753,0.3587,-0.91628,-0.15353,-0.099637
0.50126,0.34906,-0.79907,-0.26778,0.032507,-0.24925,-0.41069,-0.15093,-0.87681,-0.40342,0.74061,-0.94723,-0.12767,0.81024,-0.72289,-0.99869,0.82338,0.40785,0.30804,0.64932,-0.35538,-0.43664,0.26515,0.36559,0.26774,0.17669,0.48738,0.64103,-0.26661,-0.50133,0.7681,0.62375,-0.80577,0.29246,0.95976,-0.78192,0.51139,-0.36522,-0.63604,0.8735,-0.026143,0.46902,0.31729,-0.054567,0.65437,-0.70632,-0.5577,0.70465,-0.96635,-0.93758
-0.57098,-0.96366,-0.3052,-0.13409,0.38107,0.20846,0.37136,-0.21057,-0.90946,0.17757,0.89486,0.22018,-0.53998,0.32947,0.28769,-0.90465,0.3338,-0.1907,-0.74462,-0.82493,0.32333,0.14564,0.96236,0.7265,0.10098,-0.91441,0.33893,0.71345,0.56299,0.59609,0.12681,0.36219,0.12557,0.90937,-0.55953,0.47358,-0.026119,0.5727,0.070528,-0.18849,0.19569,0.17515,-0.30377,0.65787,0.67061,-0.65486,-0.22468,-0.39201,-0.30665,-0.097705
0.38208,0.47957,0.083201,-0.75285,0.97561,0.20487,-0.74936,0.18699,0.86039,-0.60875,-0.43904,0.83396,-0.12046,0.21731,-0.18759,-0.57324,-0.66943,-0.69588,-0.11554,-0.54727,0.32385,-0.21278,-0.72668,0.070431,-0.0052462,0.60152,-0.64117,-0.041555,-0.40373,-0.068462,0.51083,-0.091502,-0.66508,-0.69529,0.75698,0.22505,-0.52514,-0.86676,-0.30083,-0.88776,0.80419,-0.97268,0.50917,0.76924,0.53379,-0.12896,0.77813,0.18959,-0.64882,0.70281
0.29281,0.44316,-0.82219,0.83055,0.46907,-0.40193,0.30465,0.88289,-0.98745,0.22424,-0.90359,0.29189,0.49008,0.14718,-0.95017,-0.048122,0.56919,-0.69484,-0.99384,0.54601,0.035055,-0.090283,0.10168,-0.89301,-0.16298,-0.26892,-0.033641,0.3865,0.82451,-0.78336,-0.93975,0.14852,0.47764,-0.68439,-0.55103,-0.36385,-0.25356,-0.21059,-0.66236,0.5946,-0.82761,-0.19613,-0.41061,-0.94119,0.70782,-0.85,-0.85976,-0.42042,-0.30964,-0.374
-0.59998,-0.50588,0.27888,-0.35585,0.41595,-0.23926,-0.45435,0.10037,-0.22201,0.2727,-0.68204,0.25352,-0.57061,-0.52273,0.095012,-0.90402,-0.64742,0.31121,0.26803,-0.88484,-0.093955,0.77275,-0.63505,-0.98491,0.99387,-0.50958,0.71629,-0.63161,-0.48974,0.70264,-0.84132,0.81855,0.90995,0.79207,-0.049659,0.5772,0.75776,0.5191,0.21851,0.84548,0.62572,0.024508,-0.58017,-0.42582,0.65169,0.7984,-0.36955,-0.38112,0.37422,0.81638
0.080294,0.89375,0.028391,-0.96362,0.25178,-0.43403,0.91342,-0.47953,-0.063751,-0.46168,-0.75335,-0.5595,0.22492,-0.37985,-0.42022,0.39348,-0.20915,-0.92946,0.30146,0.36589,-0.076891,0.74603,-0.89048,-0.53379,0.56281,0.12091,-0.062195,-0.67992,0.15098,0.1155,0.15283,0.80783,-0.55091,-0.55003,0.73512,-0.8528,0.70375,-0.25224,0.10195,0.081803,-0.077299,-0.93515,-0.40948,-0.84447,0.71598,-0.54534,-0.83538,0.12892,-0.32151,-0.23384
-0.073343,-0.76773,-0.97909,0.85102,-0.11043,-0.069421,-0.16942,0.30769,-0.43063,-0.091727,0.37987,0.10462,-0.33537,-0.12193,0.88407,0.60666,-0.16907,-0.21897,-0.66015,0.75259,-0.032433,0.85567,0.55116,-0.57974,0.41758,0.2485,-0.16504,0.98986,-0.8226,0.76322,-0.28668,-0.75259,-0.42749,0.71689,0.8122,-0.35734,-0.80915,-0.13382,-0.52125,0.67891,-0.80861,-0.024255,0.082115,0.97668,-0.58278,0.3563,0.047557,-0.55817,-0.64445,-0.16911
0.22675,-0.73066,0.43557,0.30112,-0.14435,-0.41969,0.16538,0.085558,0.70614,0.53481,-0.96858,-0.060184,-0.78129,-0.061225,0.52029,-0.061694,-0.57129,0.3697,0.84587,-0.26397,0.91361,-0.28755,0.45403,-0.47436,-0.38726,-0.39525,0.33531,-0.86776,0.034664,-0.67622,-0.36768,-0.8169,-0.5115,0.74731,0.31364,-0.94752,-0.55347,-0.67693,0.6826,-0.4143,-0.72962,0.86223,-0.029821,-0.3168,0.71707,0.65951,-0.18525,0.33616,0.12944,0.3404
-0.62098,-0.7004,0.38756,-0.13304,-0.02401,0.65811,0.40314,0.52196,-0.087699,0.6255,0.60417,0.1703,0.63433,0.075855,-0.95089,-0.2041,0.087287,0.90606,-0.68471,-0.93962,0.99026,0.71402,0.4107,-0.77878,-0.43328,-0.054864,0.22055,0.98521,0.91854,0.83473,-0.52675,-0.4497,-0.033643,-0.92948,0.76378,-0.057194,0.48966,0.9458,-0.64585,0.92256,-0.57379,-0.55099,-0.88401,-0.69299,-0.93847,0.55083,-0.48289,0.21025,0.5316,-0.42304
0.55727,0.86636,0.15287,0.49406,-0.10524,-0.86096,-0.42459,0.36182,-0.59573,-0.74261,-0.50302,0.054182,-0.85716,0.75204,-0.68457,0.19245,-0.28347,-0.15689,0.1681,-0.31943,-0.47466,-0.88618,-0.49629,-0.52134,0.15045,0.17579,0.98946,-0.56466,-0.60604,0.33346,-0.50729,0.038817,-0.59546,-0.25684,0.43668,0.34803,-0.12342,-0.1981,-0.17177,-0.372,-0.5053,0.48413,-0.029157,0.41742,-0.90803,0.6492,-0.98328,0.58618,0.073715,0.86832
-0.37447,-0.68335,0.61624,-0.87689,0.23884,-0.23606,-0.73163,0.027866,0.66816,-0.13551,0.81997,0.49049,0.25059,-0.082764,0.16211,0.21953,-0.86616,-0.50222,0.36338,0.083119,0.55568,-0.8527,0.0031809,-0.20769,-0.72467,0.74178,-0.26223,0.77113,0.7115,-0.80612,-0.69874,-0.29812,-0.34725,-0.92578,-0.52077,-0.56785,0.73069,-0.48953,-0.3917,-0.69499,-0.50864,0.12327,-0.28526,-0.43987,0.075665,0.34686,-0.071994,-0.90569,-0.87856,-0.31467
-0.84808,-0.7641,-0.92431,-0.56634,0.72735,-0.18776,0.72335,-0.14305,-0.9955,0.90623,-0.46493,0.2369,0.55448,0.3042,0.17255,-0.71744,-0.91959,0.77917,0.80815,-0.13254,0.85965,0.74064,-0.18366,0.55741,0.51081,-0.65993,0.71205,-0.32557,0.11778,-0.66799,-0.75056,0.23762,-0.69863,-0.5276,0.95586,0.74747,-0.81231,0.68252,0.26067,-0.61673,-0.03885,-0.7832,-0.74963,0.18849,-0.021143,0.22982,-0.70768,-0.75755,0.90177,-0.98401
0.222,-0.26918,-0.35911,0.51,0.32645,-0.044197,-0.38517,0.68978,0.70594,-0.090227,0.90493,0.14943,-0.97413,0.99387,0.54809,0.53587,-0.49039,-0.57131,0.3428,0.49814,-0.5968,0.73187,0.71163,0.10293,-0.97628,-0.031855,0.59286,-0.36709,-0.060662,-0.12509,0.12651,0.74744,-0.076559,-0.13394,-0.47012,-0.27587,0.5804,0.98691,0.0041834,-0.7458,-0.92549,0.31882,0.45465,-0.51971,-0.28236,0.34492,-0.55096,0.19848,-0.88205,-0.88055
-0.48308,0.66375,-0.17041,-0.54531,0.32822,-0.56797,0.68086,0.48379,-0.06182,-0.83111,-0.29605,-0.34912,-0.49876,-0.83705,-0.51842,0.58389,0.44721,0.24265,0.11812,-0.4357,0.98808,0.28565,0.45448,-0.058391,-0.95629,0.061426,-0.6286,-0.37907,0.0030207,0.080885,0.052449,-0.97763,0.31162,0.97477,-0.86851,0.33056,0.37304,-0.16318,0.22282,0.80114,0.4462,0.35096,-0.63636,0.87408,-0.37171,-0.36033,-0.92828,0.13219,-0.0361,-0.73682
0.42379,0.91035,0.72076,0.69771,0.25768,0.63679,0.085411,0.050519,0.46047,0.24656,0.58658,0.15943,0.95457,-0.17945,0.050249,-0.92384,0.6906,-0.26671,-0.94935,0.91555,0.57454,0.29116,-0.30349,-0.7123,-0.30748,0.67073,-0.28318,0.42623,0.70338,0.61257,0.49991,0.92758,-0.84609,-0.64538,-0.26718,0.26638,0.35499,-0.057079,0.92552,-0.65955,0.73194,-0.54087,0.11454,-0.70176,-0.21732,-0.12674,0.88508,-0.28306,0.53188,0.31516
0.87723,0.66872,0.28617,-0.6419,-0.82879,0.86921,-0.6812,-0.74773,0.12609,0.64268,-0.81152,-0.90501,0.34571,0.15861,0.10791,0.50471,0.5503,0.86623,0.51974,0.82753,0.057514,-0.29726,0.23852,-0.40303,0.71975,0.81913,-0.79983,0.32736,-0.80459,-0.48727,-0.67838,0.68827,-0.29896,0.52008,-0.34666,-0.72932,-0.35015,0.78118,-0.21805,-0.26553,-0.64016,0.16866,-0.57015,-0.0069195,-0.53359,-0.3184,-0.33216,0.5308,-0.57338,-0.62495
0.44939,-0.83216,-0.20996,-0.41886,-0.010856,0.74173,-0.2082,-0.78258,-0.94002,0.2983,0.33528,-0.70109,-0.39392,0.55693,-0.32423,-0.22976,0.61951,0.55809,-0.21336,0.89987,0.33165,-0.8666,-0.39503,-0.87179,-0.17169,-0.99705,0.87711,0.43594,0.47799,0.04076,-0.71757,-0.81499,-0.57456,0.069257,-0.36086,-0.57671,-0.15392,0.65791,-0.74545,0.49671,0.95344,0.94954,0.63031,0.52179,0.29233,-0.79887,0.72141,0.16881,-0.12824,0.92678
0.084219,0.22114,-0.24035,0.9845,-0.20006,-0.043933,-0.85602,-0.14126,0.74569,-0.7084,-0.46084,0.093669,0.14415,-0.37015,0.77103,-0.16391,0.89447,0.041231,-0.10222,0.26363,-0.749,-0.35504,0.28396,0.57725,0.46908,-0.57138,-0.85748,-0.79072,-0.6623,-0.54306,-0.78695,0.773,0.75233,0.20872,-0.49354,-0.73393,-0.98365,0.10792,0.63878,-0.39232,-0.33488,-0.56326,0.78217,0.90206,-0.69252,-0.76443,-0.99937,-0.56878,0.85736,-0.83263
0.79791,-0.59568,0.34536,-0.19989,-0.46931,0.95022,-0.71631,-0.084424,-0.1232,-0.28635,0.61187,0.73044,-0.49278,-0.35058,-0.62384,-0.26933,-0.51837,0.63374,-0.54336,-0.59685,-0.70583,0.92001,-0.3028,-0.35443,-0.55634,-0.48001,-0.27299,0.40096,-0.64481,0.66042,0.87186,0.018199,0.10782,-0.68126,-0.89415,0.61098,-0.98362,0.46937,-0.27795,-0.076724,-0.95324,0.47726,0.14963,-0.5175,-0.31744,0.13542,-0.47306,0.99114,-0.91665,-0.52275
0.48266,0.17692,-0.84979,0.8777,0.81034,-0.62935,0.25002,0.68145,0.43047,-0.044364,0.77149,-0.6636,-0.88677,-0.63271,0.18057,-0.36326,-0.83585,0.30553,0.60088,0.71747,0.62504,0.63031,-0.83584,-0.056004,0.35656,0.29092,0.6242,-0.83883,-0.3394,0.72437,-0.97802,0.84036,0.76809,0.51385,-0.94141,-0.85494,0.18605,0.60313,-0.49693,-0.89007,0.069213,0.8899,-0.12784,0.37478,0.70478,0.0036862,-0.92804,-0.35146,-0.20746,-0.77396
-0.026617,0.85,0.24068,0.97663,0.60248,0.21308,-0.90204,0.80467,-0.86738,0.12343,-0.95444,-0.12736,-0.62018,-0.71875,-0.72939,-0.10068,-0.55957,0.83466,0.82975,0.44818,0.08527,-0.048241,0.062906,0.3878,0.83116,0.91287,-0.84165,0.78239,-0.57097,0.15084,-0.59244,-0.60589,-0.28884,0.77919,-0.52639,-0.92472,-0.91435,-0.35013,0.58852,-0.67485,-0.34035,-0.91147,0.28367,-0.96733,0.82673,-0.18992,0.57597,0.2401,-0.4663,0.95451
0.15627,-0.19277,0.20402,-0.41982,-0.73692,-0.08493,-0.79051,0.2808,0.88444,-0.63594,0.33378,-0.58883,-0.21877,-0.64843,0.45813,-0.98299,0.95383,0.77152,0.42527,-0.92974,0.72815,0.94752,0.29278,-0.63902,0.60799,0.61958,-0.42947,0.38776,-0.96626,0.92289,0.28397,0.43849,0.97234,0.69174,0.45978,0.59269,-0.80539,0.78124,-0.36474,0.33689,-0.49681,-0.23138,-0.27571,0.829,0.98506,-0.87373,0.081132,0.46894,0.5506,-0.44303
0.79362,0.87614,0.36279,0.80108,-0.64049,-0.60885,-0.5964,0.55667,0.56694,0.54859,0.43608,0.40144,0.84442,-0.5246,-0.48424,-0.20839,0.82291,-0.16312,0.98367,-0.18539,-0.71874,-0.55653,-0.25798,-0.78984,0.22748,0.22397,0.42279,-0.12705,0.33783,-0.20527,-0.15404,0.34917,0.64295,-0.39606,0.45722,-0.98695,-0.73927,0.76667,-0.64349,-0.32669,-0.85803,0.48962,0.86352,0.80853,-0.33635,-0.84727,-0.26308,0.27398,0.95266,0.75397
-0.91058,0.47962,0.95221,0.66635,-0.99397,-0.39042,0.11061,-0.60975,0.90127,0.13921,-0.13754,-0.49486,-0.58864,-0.49788,0.19725,0.028385,0.26324,0.73606,-0.67131,0.22725,-0.84576,-0.59049,0.19317,0.42981,0.11739,-0.33793,0.20998,0.31398,-0.017776,0.75822,0.91557,0.36057,0.72182,-0.34424,0.63463,-0.89227,0.28868,0.013009,-0.52531,0.68656,-0.82878,0.87906,-0.50856,-0.34572,-0.88124,-0.73681,-0.90712,0.30728,0.77537,0.55187
-0.74472,-0.86787,0.089151,0.3314,0.89407,-0.3643,0.09677,0.36733,-0.25333,0.9893,-0.63407,-0.83137,-0.88265,0.41848,-0.9046,0.65168,0.9846,-0.78274,0.47694,-0.10756,-0.63869,-0.72155,-0.12547,-0.69095,-0.25432,-0.1777,0.97477,0.89619,-0.16739,-0.92696,-0.43233,-0.92567,-0.66089,-0.68988,0.33866,0.41445,0.5253,-0.60245,0.86256,0.44433,0.027907,-0.66932,0.91071,0.7448,-0.90262,0.65413,0.019566,0.17893,-0.78098,-0.83598
-0.78239,-0.71258,-0.34723,0.31095,-0.73332,0.21046,-0.17234,0.42285,0.14194,0.98277,0.52896,-0.81414,-0.26552,0.070396,-0.78592,-0.50327,0.17508,-0.97442,-0.64887,0.26845,-0.58399,0.18746,-0.63327,0.034297,0.50514,0.16998,0.45899,0.54211,-0.28509,-0.39319,0.77463,0.61882,-0.38518,-0.82342,0.87279,-0.07963,0.74115,0.21724,0.27347,0.93993,0.18166,-0.29913,-0.1163,0.17164,-0.30618,-0.85472,0.802,-0.34965,0.098899,0.029611
-0.04997,0.73293,0.28659,-0.50841,0.15554,-0.069298,-0.23448,0.51469,-0.96123,0.87817,-0.68055,0.97556,0.67441,0.60323,-0.61748,-0.98401,-0.21258,0.40813,-0.46855,-0.49368,0.15849,-0.44187,-0.28437,0.049118,-0.27281,-0.29286,0.43462,0.76671,0.012556,-0.26798,-0.86871,-0.3353,0.48505,-0.77775,0.17952,0.39988,0.033139,-0.21561,-0.1094,0.1132,0.50525,0.17389,0.02349,0.33025,-0.63198,-0.60255,0.14629,-0.89798,0.32172,0.19634
0.69296,-0.35514,0.40176,-0.77674,0.2091,-0.25809,-0.39082,0.5859,-0.029573,-0.77219,-0.20829,0.9651,0.97926,-0.13105,0.094655,-0.44202,-0.33364,-0.80799,-0.47441,-0.70361,0.67161,0.1194,0.85173,-0.17198,-0.84425,-0.20335,0.33678,-0.31405,-0.81058,-0.79976,0.68677,-0.90996,0.68974,0.66375,0.641,-0.78477,0.95101,0.5778,0.49902,-0.18386,0.021042,-0.38561,0.51307,0.36892,0.80184,-0.099075,-0.99338,0.74768,-0.6629,0.025933
0.46142,0.52576,-0.23217,0.90641,0.57353,0.87732,0.9412,0.34501,-0.60199,-0.1497,0.76054,0.76794,-0.59865,-0.28457,0.078272,-0.90174,0.3552,0.76677,-0.93365,-0.99356,-0.91885,0.25585,-0.71631,-0.74961,-0.25549,-0.99509,0.19245,-0.37467,0.11592,-0.71452,-0.44694,-0.84285,0.97591,0.31492,0.28225,0.73693,0.29966,-0.052669,-0.45828,-0.22729,0.11237,0.73388,-0.61705,0.37535,0.15415,0.97694,-0.92268,0.35253,-0.14717,0.8395
0.24765,0.76119,0.80051,0.5979,0.72628,0.8249,0.66536,-0.76066,-0.2709,-0.57662,0.79261,0.52154,0.43952,-0.57622,-0.014626,-0.85735,0.35231,0.55407,-0.22939,-0.98151,-0.59037,0.044331,0.9805,0.089529,0.47052,0.35059,-0.55431,0.015378,0.16152,-0.71974,0.14311,0.22937,-0.68709,0.44498,0.78356,0.63261,-0.28188,-0.089038,-0.012578,-0.60535,-0.43695,0.11193,0.77121,-0.026614,-0.54397,0.33387,-0.40902,0.89941,-0.55797,-0.94099
0.99936,0.010484,-0.82652,-0.48174,0.074758,0.93364,0.53346,0.42527,-0.27162,0.7817,-0.016795,-0.76298,0.9717,0.77852,-0.70237,-0.81965,-0.2578,0.36801,-0.968,-0.32724,0.063249,0.73402,-0.611,-0.80318,0.70122,0.84937,-0.63607,0.025046,0.026603,0.84743,0.29929,-0.20087,0.74231,0.27998,0.52158,0.33034,0.78148,-0.86936,0.31444,-0.12048,0.56144,0.96456,-0.18838,-0.47435,-0.98065,-0.096883,0.81548,-0.73567,0.2885,-0.76363
0.73233,-0.05847,-0.92428,0.0012099,0.20096,0.15027,-0.65328,-0.25095,0.074878,0.073541,-0.30061,0.81617,0.94585,-0.91071,-0.35218,0.23822,-0.092958,-0.15732,-0.30384,-0.16993,0.085257,0.10348,-0.21284,0.90975,-0.41463,0.98552,-0.90667,0.16369,-0.15492,0.51429,0.74944,0.92239,0.54254,-0.075781,0.5774,0.22976,0.4385,-0.37561,0.66446,-0.42318,-0.11313,-0.53595,-0.8784,-0.59651,0.29176,-0.87339,-0.62599,-0.68112,-0.7935,-0.70604
-0.87634,0.36975,-0.48077,-0.8955,-0.73123,-0.14282,-0.96626,-0.5387,0.5348,-0.79233,-0.31848,-0.12397,-0.82629,-0.35433,-0.92175,0.35555,0.3859,0.90697,0.010556,0.71536,0.98134,0.97156,-0.21178,0.79601,0.32273,-0.53202,0.23998,-0.39443,-0.071269,0.67175,-0.024897,0.96672,0.4056,-0.6021,-0.22398,0.99804,0.079205,-0.9625,0.62589,0.54861,0.71412,0.70861,0.18899,-0.030961,0.44775,0.26086,-0.22421,-0.27077,0.48058,0.3077
-0.64577,-0.41019,-0.35174,-0.17235,-0.70901,-0.98899,-0.65309,0.55073,0.77876,-0.49461,0.56088,0.65326,-0.85358,-0.70639,-0.86023,-0.38879,-0.30503,-0.024727,0.065818,0.23929,0.99104,0.52604,-0.88011,-0.55821,0.91826,0.74788,-0.017839,-0.51856,-0.66981,0.4089,-0.62781,-0.33825,-0.0083778,-0.80835,0.44594,-0.94631,-0.86882,-0.16302,-0.040997,-0.21162,0.36692,-0.17059,-0.39765,0.98351,-0.37564,-0.62918,-0.070661,0.9862,-0.77318,0.24157
0.50599,0.30985,0.47256,-0.44431,-0.059476,-0.94949,-0.12521,-0.11449,-0.95383,0.78013,0.82411,-0.81996,-0.058342,0.20385,-0.93049,0.84497,-0.71043,0.57679,-0.19424,0.43945,-0.47225,0.45188,-0.49942,-0.82293,0.17808,0.40287,0.21563,0.43287,-0.050593,0.42868,-0.30148,-0.8237,-0.54999,-0.35139,-0.33842,0.56445,0.94813,0.3089,0.47076,0.98984,0.064688,-0.28348,0.22347,-0.093919,0.1612,-0.8779,0.38858,-0.61565,-0.79204,-0.80346
-0.98797,0.81279,0.79196,-0.45307,0.45135,0.19348,-0.73525,0.4375,0.17463,-0.48314,0.81258,-0.40763,0.34046,0.84817,0.12701,-0.97788,-0.27229,-0.041882,-0.71144,0.45754,-0.39023,0.84554,0.011696,0.37398,-0.98569,-0.81958,0.7875,0.53981,-0.20139,0.90123,-0.13069,0.52622,0.4132,-0.48703,0.48435,0.34276,-0.98778,-0.5886,0.31545,-0.029598,-0.95087,0.14258,0.40973,0.85086,0.9989,0.53946,-0.50603,-0.16003,0.81507,0.10324
0.49692,0.60576,0.48451,0.84842,0.48667,-0.73626,0.59082,0.94391,-0.96738,0.69884,-0.24434,-0.31795,-0.7687,-0.1865,0.065073,-0.64793,0.57606,-0.17303,0.70573,0.54317,-0.37324,0.74672,-0.82827,0.28977,-0.3841,-0.90703,0.74329,0.58248,0.99989,0.27845,0.20935,-0.19596,-0.76443,-0.58973,-0.634,0.80511,0.98691,-0.6746,0.67226,-0.054765,0.42246,-0.27423,0.85625,-0.081743,-0.9036,-0.57661,0.67114,0.54897,0.040645,-0.37753
0.41899,0.43628,0.051189,-0.47842,-0.30647,0.87439,0.44977,0.70543,-0.90704,-0.53615,0.50695,-0.48421,-0.94519,0.94105,0.17349,0.60198,0.89287,-0.74989,0.73132,-0.41321,0.26888,-0.56594,0.64239,0.089633,-0.17091,0.74378,0.8498,0.46002,-0.56725,-0.64995,0.15439,-0.99556,-0.45587,-0.133,-0.48489,0.43937,-0.22054,0.3908,0.14408,-0.56039,0.9009,0.32476,-0.88694,-0.35592,-0.44049,0.35534,-0.19853,-0.14484,0.12997,-0.50441
-0.37908,0.38796,0.92206,0.50076,-0.8835,-0.37904,-0.82252,-0.38939,-0.23801,0.44267,-0.10923,0.53095,-0.63544,-0.16611,-0.50693,0.70445,-0.83712,-0.18749,-0.89721,0.98642,-0.50105,0.33855,-0.076281,-0.46943,-0.29265,0.90765,-0.19719,-0.90308,-0.3521,0.7095,0.012701,0.67065,-0.079501,0.56729,-0.75366,-0.85231,0.67182,0.9636,-0.88287,0.12545,-0.51754,-0.35736,0.33926,0.65803,-0.26814,0.54708,0.15601,0.34197,-0.046905,0.75065
0.94482,0.19985,-0.50449,0.25967,-0.16667,0.66251,-0.85486,0.88783,0.35672,-0.69286,0.38893,0.031697,0.67886,0.91324,0.50575,0.62522,0.79949,0.23584,0.91328,0.93791,-0.020129,-0.86087,0.29596,-0.99497,0.93936,0.92441,-0.80383,-0.42736,-0.43675,0.37653,-0.50233,-0.40857,-0.80272,-0.26163,-0.18451,-0.16149,0.60976,0.29591,0.58665,-0.04127,-0.77704,-0.72861,-0.077829,0.18666,-0.28426,0.51759,-0.69189,0.95781,0.48063,-0.57298
0.19318,0.28887,0.13,-0.32894,-0.052329,-0.93325,-0.95981,0.88232,0.036509,-0.85455,0.49298,-0.43784,-0.65003,-0.092176,0.54803,0.65659,0.60423,0.2007,-0.26631,0.83306,-0.26645,-0.81567,-0.59512,0.16083,0.69322,-0.74731,0.4206,0.29693,-0.46417,-0.42928,0.067491,-0.16046,-0.3516,-0.6229,0.20028,0.81788,0.7275,0.27919,-0.56426,0.36043,-0.92472,0.76543,0.92574,-0.77049,-0.22745,0.82254,-0.15661,-0.77838,-0.098296,-0.86158
-0.10275,-0.24401,0.19633,-0.63703,-0.88632,0.71953,-0.076202,-0.081744,0.86836,0.15389,-0.69779,-0.061393,-0.33767,-0.84232,0.090914,0.96467,0.48139,0.82615,0.99853,-0.12904,-0.9214,0.86993,0.75591,0.26509,-0.3675,0.47416,0.86655,0.10395,0.3342,0.42899,0.54571,-0.70359,-0.039149,0.4331,0.72139,-0.70378,0.71259,0.67935,0.87596,0.0069923,-0.74235,-0.78311,-0.82573,-0.83453,0.39143,0.8034,0.14123,0.70242,0.71482,0.32451
0.61172,0.23088,0.36401,-0.14085,0.256,0.81023,-0.74807,0.56552,0.91301,-0.31008,0.33379,0.39629,-0.20421,0.44073,0.6775,-0.37826,-0.43282,0.61019,0.087832,-0.36156,-0.20033,0.22931,0.66248,0.15279,-0.26149,0.95116,-0.64514,0.40954,-0.48374,0.60257,0.10209,-0.68249,-0.48791,0.66497,-0.87036,-0.81833,0.84465,0.51178,-0.92736,0.26084,0.93583,0.57942,0.60985,-0.18511,0.46262,0.17195,0.011569,-0.92748,-0.27021,0.53827
-0.1408,-0.85253,0.20298,0.95124,-0.24323,-0.62174,0.50046,-0.12915,0.63162,0.87051,-0.71532,-0.24253,0.33511,-0.60471,-0.5787,-0.5407,0.38329,-0.33723,0.61047,0.24086,0.23006,0.4076,-0.78917,0.12852,-0.61595,-0.26645,0.17477,0.89844,0.19715,-0.48524,0.47948,0.21252,-0.62968,0.9687,0.48477,0.015989,0.70183,-0.3295,0.76972,0.96038,0.033235,0.18361,-0.56433,-0.49041,-0.1991,-0.10403,0.69673,-0.3329,-0.89129,-0.31478
-0.56289,-0.58144,-0.39419,0.34801,-0.33894,0.029531,0.28849,0.085994,-0.17314,-0.91801,0.34621,0.3636,-0.14293,0.47376,-0.14649,-0.017121,-0.80637,0.17263,0.57071,0.40391,0.31264,0.92466,-0.66517,0.28726,0.19176,0.01795,0.90612,-0.19265,0.39509,-0.54668,0.8954,0.1322,0.26868,0.62248,0.1015,-0.1172,0.76774,0.58156,-0.5939,0.55788,0.18493,0.83009,-0.4942,0.50171,0.36257,0.68065,0.5436,0.3852,0.86823,-0.3729
-0.28964,-0.37405,-0.35335,0.48578,0.24963,-0.46084,0.61829,0.31762,-0.84139,0.77815,0.32964,-0.16972,0.18602,0.19786,-0.75851,0.41106,0.96276,0.33777,0.33262,-0.7293,-0.58761,0.62234,-0.5599,-0.0081361,-0.042041,-0.36911,0.27361,0.74951,-0.1395,-0.47319,0.59137,-0.64336,0.97475,0.10062,-0.058465,0.66505,-0.97278,-0.21586,0.9885,-0.85226,0.47057,0.65679,-0.75029,0.97017,0.96964,0.86094,0.8287,-0.81212,0.013103,-0.13744
0.19125,0.75796,-0.6847,-0.70769,-0.33608,-0.71011,-0.0097613,0.077498,-0.99466,-0.33599,-0.95637,-0.98696,-0.61093,-0.74142,0.38339,-0.15047,0.79916,-0.85151,-0.80208,0.96609,0.57475,0.36423,0.95516,-0.82173,-0.64603,-0.74513,0.7583,-0.86533,-0.93365,0.42141,-0.47854,0.40891,0.66282,-0.98283,-0.036728,-0.92845,-0.56156,0.84787,-0.28412,0.4295,0.062691,-0.99848,-0.20681,-0.46143,-0.41662,0.82477,0.028596,0.76572,0.87063,0.91021
0.26244,-0.59386,0.1942,-0.26762,0.79995,-0.40223,0.96427,-0.92183,0.084081,0.97274,-0.39157,0.89182,-0.25251,-0.81807,0.77973,-0.71536,0.69134,0.1703,-0.74393,0.9881,-0.44962,-0.29992,0.46765,0.053217,-0.90894,0.63545,-0.95294,0.60773,0.029121,0.68456,0.99683,-0.56753,0.20139,-0.77501,-0.58172,-0.83355,-0.60055,0.7009,0.99959,-0.95313,0.89633,0.31958,0.61084,-0.18171,0.90644,-0.21772,-0.0036713,-0.058098,-0.30238,0.8517
-0.54355,-0.4879,0.15478,-0.96835,0.57917,0.71545,-0.21457,-0.50655,0.22299,-0.49784,-0.75267,0.66137,-0.21439,0.34403,-0.69192,0.064375,0.2984,-0.024985,-0.12532,0.52491,-0.0015051,0.57414,-0.46044,-0.45401,-0.22321,0.49106,-0.83301,-0.32518,-0.61299,-0.75472,-0.35918,-0.51274,-0.59305,-0.91823,0.33237,0.97589,0.91584,-0.19608,-0.67874,-0.53354,-0.23754,-0.59042,-0.95045,-0.56022,-0.081979,0.67744,-0.2715,0.44531,0.3478,-0.75592
-0.96318,0.66358,0.6334,-0.51233,-0.95074,0.71531,-0.0023537,0.28318,0.7241,-0.92975,0.17601,0.73928,0.020628,-0.13973,-0.11203,0.8353,0.3675,-0.55217,0.56615,-0.29407,-0.71637,0.088577,-0.21684,0.90128,-0.9568,0.19289,0.48035,0.55087,0.25422,0.41008,0.61683,-0.22805,-0.46625,-0.86308,0.22284,-0.9271,-0.2306,-0.18724,0.36358,0.44221,0.13067,0.76192,0.61173,0.579,-0.10197,-0.19401,0.35005,0.36403,-0.97798,-0.32692
0.34205,-0.11814,-0.56595,0.69423,0.69497,-0.72161,-0.26018,-0.64914,-0.28775,0.73825,0.22704,0.72426,0.63989,-0.48798,0.98145,-0.78313,-0.076549,0.82456,-0.4649,0.43002,-0.047547,-0.5234,0.21683,-0.85652,0.37247,0.15113,0.64148,-0.87603,-0.3798,-0.68941,0.47117,0.64774,0.10655,-0.66454,0.96147,-0.54526,0.83785,-0.7086,0.46633,0.74125,-0.7899,-0.39233,-0.21454,0.064467,-0.52054,-0.96323,-0.43005,-0.93742,0.35544,-0.12609
0.13746,0.89853,-0.65507,0.80773,0.15519,-0.41276,-0.492,0.7117,0.6944,0.20998,0.58164,0.042507,-0.82712,-0.20894,0.11836,-0.54522,0.66237,-0.94757,-0.3399,0.56386,0.9363,-0.87821,0.18209,-0.6155,0.22498,-0.47829,-0.44352,0.15074,-0.54357,0.41643,0.44596,0.65158,-0.92232,0.33179,-0.84007,0.83641,0.49966,-0.89328,0.17268,-0.51636,0.2607,-0.80463,0.93413,-0.37992,0.56689,-0.16778,-0.26062,-0.98683,0.81026,0.40487
-0.8361,0.18043,0.32724,-0.3429,-0.81392,0.73946,-0.37947,-0.13581,-0.095961,-0.039339,0.4233,0.31053,-0.59025,-0.38104,0.045583,0.8238,0.24015,-0.19505,0.84016,0.6541,-0.48251,0.38131,-0.51393,0.57759,0.00044979,-0.87119,-0.66933,0.10153,-0.8227,-0.9241,-0.85123,-0.19046,0.93985,0.67934,0.22505,0.59875,-0.22708,0.051311,-0.55958,-0.73497,-0.26205,-0.82271,0.89099,0.32293,0.6789,0.14623,-0.013241,-0.38169,-0.50104,-0.87022
0.91171,0.089692,-0.37675,-0.82235,0.44913,0.07533,0.616,0.90248,0.51234,-0.21269,0.88305,-0.75726,0.51784,-0.32488,0.55798,-0.94599,0.76508,0.81022,-0.036922,0.075353,-0.078844,0.84869,-0.413,-0.81116,0.16144,-0.12632,-0.79214,0.59888,-0.86668,0.79701,0.33437,-0.054675,-0.58009,0.42307,0.54491,-0.8021,0.91265,-0.8244,-0.43443,0.61449,0.42014,-0.28001,0.95325,-0.78474,-0.085495,-0.62048,0.25736,0.89083,-0.24886,-0.92044
0.64258,0.34299,0.43888,0.22183,-0.086936,-0.60702,-0.34912,0.22645,0.66162,0.92056,-0.035971,0.42231,0.7532,0.040479,0.77234,0.39693,-0.87422,-0.69798,-0.58206,-0.63207,0.31853,-0.70438,0.63495,-0.32241,0.37941,0.10501,0.9528,-0.24313,-0.4552,-0.52547,-0.14134,-0.073072,-0.061562,0.20234,-0.43917,-0.39942,0.03429,0.67177,-0.069412,0.35416,0.43522,-0.76203,-0.61292,-0.60737,-0.15739,0.50715,-0.02547,0.88055,-0.32822,-0.83911
-0.88661,-0.32021,-0.72453,-0.57602,-0.0095488,0.68733,-0.016676,0.25629,-0.028905,-0.9353,0.08895,0.5667,0.77403,-0.54026,-0.78298,-0.6577,0.31459,-0.33366,0.7591,-0.46173,-0.16003,0.45398,0.8792,0.26007,-0.94602,0.29772,-0.92242,0.068501,0.24902,0.092813,0.49282,-0.76347,0.41883,0.89729,-0.97752,0.4676,-0.72351,-0.69578,0.28107,0.53142,-0.88249,0.04478,0.44194,-0.70263,0.28281,-0.16917,0.018065,0.28505,-0.88123,-0.63998
0.91786,0.96752,-0.0028202,-0.073992,-0.64258,-0.35675,0.93249,0.72068,0.12905,-0.24436,-0.06086,-0.021495,0.89049,0.99146,0.27182,0.1684,0.93084,-0.12293,0.25086,0.087161,-0.34258,-0.079757,-0.85009,-0.63862,-0.5666,-0.13526,0.76539,0.90017,-0.46489,0.59992,-0.37327,0.46446,-0.19754,0.5037,-0.76299,0.85267,-0.20606,-0.2762,-0.35378,-0.38329,0.78647,0.19498,-0.47112,-0.47684,0.43038,-0.024998,0.42599,0.10675,-0.70625,0.57956
0.38114,-0.18687,-0.2784,0.62256,0.63732,0.77016,-0.98475,0.83485,-0.51089,0.40128,0.37533,0.7829,0.60428,-0.87811,-0.33228,0.72825,-0.83122,-0.95123,-0.17555,0.29944,0.67846,-0.46232,-0.48322,0.41684,-0.72694,-0.16643,0.91513,-0.75779,0.72541,0.80445,0.7328,0.059473,-0.48574,-0.42375,-0.88976,0.97006,0.74302,-0.4591,-0.9411,0.058256,0.86304,0.16856,0.13255,0.66149,0.62869,0.24636,0.027542,0.32737,-0.4393,-0.84001
-0.52948,0.91321,-0.6811,-0.95328,0.59121,0.085488,-0.48573,0.10385,0.84908,-0.58019,-0.66531,-0.68945,0.75984,-0.29245,-0.56557,0.66439,-0.67521,-0.58827,0.90083,0.17008,0.055727,0.55939,-0.91106,-0.04804,0.34487,-0.89653,-0.29663,-0.27748,0.80478,0.74211,-0.72829,0.46452,-0.46866,-0.013334,0.49788,-0.60533,-0.3846,-0.3499,-0.11586,0.14652,0.71104,-0.51672,-0.65118,-0.76413,-0.93698,0.61512,0.84698,0.8311,-0.73344,-0.26448
0.024133,0.58854,-0.31115,0.98046,-0.35199,-0.054473,0.81219,0.63934,-0.065143,0.067306,-0.41956,0.51756,-0.70872,-0.43464,-0.99491,-0.24757,0.30238,0.95971,0.84823,0.37188,0.9264,0.10278,-0.084458,0.60433,-0.16358,-0.68038,-0.46252,-0.71169,-0.058262,0.19599,0.47248,-0.4677,-0.37108,-0.3759,0.86712,0.28852,0.40428,0.18428,0.3836,0.59756,-0.62724,0.28001,-0.09621,-0.49053,0.0061583,-0.68981,-0.7218,-0.86832,0.81185,-0.42482
0.90177,0.89684,-0.90781,-0.14146,-0.40548,-0.83169,-0.13434,-0.086021,0.29012,-0.28006,0.13201,-0.61448,0.94012,-0.12983,-0.98679,0.24225,-0.51826,-0.77615,0.91897,0.61544,0.94722,0.35625,-0.39489,-0.79335,-0.76889,0.56657,0.91525,0.17745,0.19504,-0.37268,0.14923,-0.44413,0.93375,-0.73024,-0.9237,-0.80131,0.20891,-0.32257,-0.36024,0.71292,-0.37387,-0.97548,-0.0024753,0.49457,0.76041,0.99437,0.79706,-0.20311,-0.75106,-0.43169
0.94114,-0.0001895,-0.36416,-0.078285,0.51318,-0.79049,0.057929,0.93994,0.86015,0.42634,-0.19878,0.38301,-0.15207,-0.29775,0.0345,-0.40809,0.50752,0.087637,-0.36679,0.20373,-0.78129,0.46527,-0.22,0.27636,0.38739,-0.70431,0.76708,0.091823,0.27802,-0.90589,0.07213,0.28269,0.16817,0.90889,-0.72697,-0.59985,0.34396,-0.59958,-0.78092,0.41475,-0.15311,0.78148,-0.1785,0.99517,-0.088622,-0.21896,0.80393,-0.67061,0.50816,-0.47079
0.54412,-0.77829,-0.53033,0.33307,0.27482,0.68543,-0.51925,-0.98828,-0.30421,-0.98612,-0.77753,0.93151,-0.67972,0.6526,-0.29893,-0.037762,-0.43451,0.11725,0.020437,0.9715,0.2749,-0.32633,-0.39804,-0.87408,0.27129,0.8183,-0.1564,-0.32798,-0.5001,-0.17972,0.19086,0.7256,-0.64908,0.52074,-0.63829,-0.32677,-0.28173,-0.0030753,-0.045258,-0.87731,-0.19465,0.11787,0.66736,-0.70741,0.95833,0.087147,0.24963,0.22519,-0.86576,0.86074
-0.90031,0.12112,-0.23273,-0.3769,-0.20384,0.77412,0.070886,-0.81332,-0.28753,0.27915,0.69811,-0.85771,-0.69794,0.0037933,-0.48228,0.03482,-0.18072,0.13057,-0.88371,-0.60196,0.68387,-0.73744,-0.95274,0.59412,0.55664,0.18287,0.28833,-0.41087,-0.0088352,-0.74951,0.48023,-0.033873,-0.9053,-0.87353,0.7262,0.50084,-0.054509,-0.33127,-0.59771,-0.43531,-0.79972,-0.18135,0.17402,0.32497,0.44546,0.15445,0.78891,0.806,-0.84653,0.40098
0.041912,0.28026,-0.44629,-0.20584,0.84969,-0.027587,-0.13854,0.78792,0.51642,-0.74749,-0.044886,0.81176,0.10459,-0.31178,0.65485,-0.68114,-0.045049,0.80933,0.24184,0.71918,0.62504,-0.83187,-0.80116,-0.30263,0.81128,0.77309,-0.86986,0.14034,0.30101,-0.63702,0.352,-0.6359,-0.35314,-0.11061,-0.26833,-0.63895,0.11362,0.71969,0.37089,-0.32325,-0.44712,0.40146,-0.094119,-0.74667,0.4031,-0.1879,0.42798,0.37805,-0.4238,-0.42171
0.15356,0.30818,-0.046836,0.5839,0.96552,-0.031554,0.33011,0.73145,-0.73412,0.54908,-0.23309,-0.82569,-0.62442,0.785,-0.45316,-0.025851,-0.96515,-0.27021,-0.48105,-0.16794,-0.052239,0.57231,0.15322,0.4182,0.31566,-0.89271,-0.15952,0.60478,-0.98338,0.64217,0.72957,0.49475,-0.32936,0.58769,0.11251,0.29675,-0.2945,0.23691,0.91179,-0.57771,-0.24661,-0.0714,-0.4916,-0.51435,-0.26006,-0.46539,0.94214,-0.099247,-0.55124,-0.75742
0.47631,0.59711,0.88992,0.40573,0.35192,-0.88548,0.28577,-0.18974,0.11476,0.074722,-0.56462,0.014605,-0.4041,-0.018725,0.53679,0.68381,0.38314,0.85306,-0.3745,-0.21833,-0.51993,0.03678,-0.18391,-0.64636,-0.21705,-0.067398,-0.11317,-0.20355,0.049316,-0.99349,-0.73445,0.085331,-0.071093,0.82371,0.65943,-0.63497,0.015111,0.94615,0.69472,0.52654,0.9872,-0.104,-0.14396,0.87934,0.54463,0.25405,-0.23978,-0.36093,-0.21553,-0.49524
0.65811,0.63891,-0.3269,0.49228,-0.052832,-0.87838,0.14086,-0.35229,-0.25621,0.18635,0.15068,-0.29202,0.46055,0.93883,-0.81673,0.32735,0.14131,-0.16561,-0.81774,-0.11989,-0.77429,0.57374,-0.53829,0.82755,-0.23889,-0.77583,-0.75334,0.37734,0.61345,-0.90219,-0.0082354,-0.11418,0.10663,0.70495,0.19008,0.24203,0.89406,-0.25005,-0.8578,0.45331,-0.14553,0.76445,-0.90951,-0.72146,-0.80872,0.42845,0.59025,-0.2918,0.075406,0.33284
0.30384,-0.64646,-0.19179,0.14845,-0.77852,-0.61388,0.4209,-0.53385,-0.10189,-0.76138,-0.058999,-0.53725,0.92198,0.42446,0.41021,-0.20922,0.86098,0.51335,-0.71532,0.31646,-0.57456,0.83104,-0.24307,-0.25552,-0.56339,0.80146,-0.20735,0.81744,-0.40742,0.54091,0.84954,-0.82777,0.72838,-0.70288,-0.8943,0.51169,-0.52299,0.63076,0.14474,-0.11737,-0.46131,0.95451,-0.58093,-0.81784,-0.71084,-0.36766,-0.28202,-0.6152,-0.017303,0.076771
-0.20565,0.13988,-0.23315,0.24175,0.94283,-0.28769,-0.64882,-0.5229,-0.066783,0.22366,0.011384,0.54221,0.26314,0.76334,0.71169,-0.72944,-0.38579,0.97593,-0.69936,0.012892,0.53133,0.61195,0.27922,0.80546,-0.26473,0.90604,0.15,-0.77249,-0.83534,-0.39737,-0.58522,0.18101,-0.54447,0.45099,0.51526,-0.5081,0.39708,-0.73673,-0.44247,-0.75584,-0.91454,0.18382,-0.52788,-0.80791,-0.81179,-0.72481,0.61965,-0.63553,-0.46888,0.5627
-0.24673,-0.78856,-0.32235,-0.60091,-0.070489,0.86747,-0.90327,0.91311,-0.64033,-0.021373,0.015011,0.12311,-0.57893,0.17395,-0.16986,-0.20078,-0.93658,-0.13695,-0.37376,-0.96784,-0.31455,-0.76644,-0.68505,-0.47333,-0.27288,0.62541,0.13022,-0.77126,0.39759,0.24142,0.6332,0.35339,0.079526,-0.58469,0.4662,-0.82258,0.17532,-0.69034,-0.012557,0.40028,-0.97422,0.23922,-0.93613,0.59381,0.20726,-0.40128,0.57558,-0.57977,0.87877,-0.2901
-0.88688,0.61841,0.16544,0.80049,0.33504,0.15653,0.98686,0.23949,-0.29499,-0.24269,-0.35305,-0.41893,-0.73621,-0.16854,0.97025,-0.57771,0.0955,0.19514,0.72031,0.30737,-0.67268,0.92573,-0.56285,-0.55141,-0.23643,-0.33622,-0.39329,0.25655,0.52954,-0.76028,-0.067214,0.53814,0.047022,0.95138,0.23079,0.66941,0.046792,0.51533,-0.22012,0.94871,-0.96918,0.37708,-0.45024,-0.72212,-0.50557,-0.24451,-0.94956,-0.22181,-0.148,-0.52639
-0.19824,-0.36316,-0.0035133,-0.80403,-0.91901,-0.88855,0.74499,-0.88566,0.66482,-0.97714,-0.77564,-0.81889,-0.92652,0.26596,0.13384,-0.3655,0.041705,-0.73705,0.29957,-0.080685,-0.09749,-0.96636,-0.40882,-0.15465,0.49971,-0.45753,-0.52032,-0.75496,-0.8671,0.73769,-0.54823,0.6477,-0.63818,0.79048,-0.92382,0.073876,-0.43218,0.22815,0.8365,-0.35485,-0.80024,-0.99685,-0.056398,-0.79471,0.48675,0.40784,-0.54434,0.91425,-0.23087,0.27375
-0.58606,0.50278,0.069053,-0.40922,0.26822,-0.49418,0.49945,0.40909,-0.97379,0.71935,-0.37119,0.048545,-0.29879,-0.15328,-0.20918,0.66619,0.57363,0.95327,0.52184,-0.46268,-0.45559,-0.82007,0.3658,0.19266,-0.22821,-0.89752,-0.13811,0.39244,0.91199,0.80153,-0.80735,0.003095,-0.62714,-0.93153,-0.25041,-0.84373,0.36002,0.57571,0.32865,0.58421,0.27275,-0.92212,-0.66506,-0.045402,-0.3267,-0.79974,0.93958,-0.53392,0.47306,-0.15938
0.60905,0.8602,-0.62319,0.79597,0.42082,0.51501,0.63163,-0.46919,0.3011,0.78259,-0.86825,-0.31374,-0.62987,-0.40011,0.36756,0.084634,0.33201,0.83886,-0.74808,0.92438,0.015947,0.80787,0.63035,-0.61836,-0.70469,0.77856,0.071944,-0.79622,0.2273,-0.39321,0.13318,-0.36841,0.98767,0.57021,-0.24431,-0.050465,0.27971,0.61589,-0.15809,-0.82475,-0.90398,0.55117,0.9391,-0.83654,0.5207,-0.19219,0.32774,-0.0091135,-0.28296,0.77299
-0.64414,0.9635,0.84877,0.55471,-0.009948,-0.50832,0.68609,-0.72705,0.96493,0.50883,-0.7228,0.51946,-0.94715,0.53478,-0.60167,-0.68063,0.9726,-0.97349,0.53253,-0.98635,0.80727,0.28346,-0.40713,-0.85823,-0.82826,0.97067,0.16774,-0.017054,-0.039025,-0.16483,-0.034623,0.47897,0.73563,0.2613,0.17481,0.55422,-0.41248,-0.63416,0.89216,0.30234,0.81992,0.84136,-0.36492,0.18518,0.66272,0.4261,-0.54322,-0.68793,-0.26208,0.012479
-0.23725,-0.8867,0.52301,-0.64842,0.50359,0.97325,0.77082,0.29575,-0.46247,0.59963,-0.49198,-0.84179,0.32721,0.66217,-0.63576,-0.73371,0.38323,0.25105,0.05556,-0.68596,-0.11311,-0.36348,-0.67773,0.31679,0.43453,-0.27128,0.25234,-0.1794,-0.94523,0.32605,0.39592,-0.80641,0.28849,0.11696,-0.55721,-0.88939,0.35987,-0.66005,0.62471,0.8198,-0.2095,0.29543,-0.12571,-0.70493,0.49925,0.39261,-0.74479,-0.16107,0.11352,0.080468
-0.4721,0.68714,0.76646,0.84877,-0.28909,-0.29052,0.36885,-0.06733,0.33756,-0.73288,-0.708,0.075773,-0.018527,0.63808,0.62346,0.51006,0.1001,0.91892,0.70447,0.065878,0.65205,0.30591,0.65459,0.5413,0.044269,0.29266,0.43055,0.80162,0.52722,-0.75112,-0.96089,-0.58694,0.12352,0.78406,0.26728,0.10352,0.77467,-0.51482,0.66418,-0.85403,-0.40661,0.25917,0.44494,0.81331,-0.35482,-0.94362,0.46761,0.71161,0.89193,-0.66382
-0.96067,0.36084,-0.071416,0.68286,0.13414,0.8375,-0.19187,-0.51533,-0.80032,-0.45077,0.76906,0.3675,0.66886,-0.4521,0.38937,0.27074,0.25831,0.79549,0.30722,0.69994,-0.95796,0.26688,-0.058771,0.28748,0.50653,-0.94225,-0.0026479,0.032656,0.86113,0.96229,0.43254,0.85269,-0.79554,0.068918,-0.56498,-0.15865,0.82137,-0.13193,-0.96857,-0.18923,0.0021246,0.14606,0.32235,-0.30141,0.61126,-0.85422,0.30218,-0.99117,0.31833,0.62563
0.16671,0.0116,0.16889,-0.61357,0.0023468,0.91969,0.92114,0.8949,0.54842,0.87399,-0.77171,0.52061,-0.87815,0.61373,-0.83639,0.39827,0.94071,0.56043,-0.14364,-0.66166,-0.90717,-0.65775,0.52564,0.26142,0.080976,-0.53935,-0.44626,0.34406,-0.67929,-0.40012,0.15035,0.041424,0.24571,0.37219,-0.86024,-0.69803,0.79547,0.75669,0.024509,0.69094,-0.12321,0.24092,-0.45549,-0.40399,-0.14274,0.17846,-0.31907,-0.80432,0.27218,0.81203
-0.53519,-0.40924,-0.06064,-0.070365,0.55203,0.90339,0.59417,-0.049471,-0.9856,0.99116,0.86443,-0.14931,-0.32377,-0.11227,0.32597,0.94589,-0.74964,-0.14562,0.57046,-0.83037,0.30695,0.43316,0.76802,-0.049962,0.26641,0.44143,-0.27337,-0.58256,0.86856,0.083846,0.13087,-0.50468,-0.52134,0.90727,0.33341,0.98904,-0.96165,0.51241,-0.92834,-0.054996,-0.882,-0.84102,0.02262,-0.092069,0.020645,-0.45325,-0.59843,0.86623,0.34746,0.6942
0.3224,-0.40227,0.47754,-0.41424,0.31189,0.20747,0.362,-0.099307,0.22528,0.90333,0.68145,-0.50468,-0.18059,-0.15312,0.021592,-0.17305,-0.36123,0.42875,-0.54056,-0.57606,0.69585,0.36501,0.19506,0.55781,0.56867,0.84879,-0.38745,0.062846,-0.42977,-0.97388,0.98803,-0.16173,0.088688,0.46318,0.80028,0.72199,0.46419,-0.22889,-0.078207,0.85193,0.78417,-0.63177,0.96056,0.37188,-0.71349,-0.77654,0.082071,-0.41731,-0.05912,0.61076
-0.92521,0.85489,-0.43586,0.36105,0.51667,-0.51441,0.85375,0.55887,-0.4479,-0.00068163,-0.075612,-0.6166,-0.37236,0.47484,-0.66328,-0.53034,-0.27458,-0.84966,0.5017,-0.58468,-0.33928,-0.63977,0.60574,-0.88373,-0.74969,0.13496,0.024036,0.03601,-0.4968,0.69021,-0.6215,-0.19469,0.75407,-0.32521,0.99191,0.6832,0.62246,0.4425,-0.2372,0.38252,0.98224,-0.29244,-0.63063,-0.92848,0.85038,-0.65867,0.1001,0.95201,0.0033752,-0.75023
-0.6758,0.94639,-0.73168,-0.53448,0.58377,-0.63222,-0.14354,-0.024729,-0.18367,0.26035,-0.61594,-0.36221,0.12281,0.9426,-0.89608,-0.6785,0.43421,0.19604,-0.13672,-0.20814,0.58714,-0.80599,0.66504,-0.93138,0.19206,0.67754,-0.60051,0.10635,-0.50462,-0.22272,-0.23844,-0.56631,0.67564,-0.37893,0.34115,0.69474,-0.55898,-0.31784,0.25477,-0.60616,-0.72036,-0.76178,-0.71908,0.3442,-0.079592,0.25584,-0.35664,-0.063259,-0.37295,-0.19593
0.063898,0.95935,0.76022,0.36506,-0.96729,-0.68154,-0.013202,-0.75784,0.9679,-0.96389,-0.49554,-0.2029,-0.090914,0.42402,-0.20453,-0.72626,0.59614,0.26381,0.53017,0.061152,-0.49705,-0.62845,0.60794,-0.92864,0.33706,0.85524,-0.8271,-0.72106,-0.62841,0.041953,0.2733,0.27293,-0.078205,-0.58812,0.86585,0.5999,-0.69638,-0.76177,-0.078648,0.08317,0.40731,0.72847,0.79939,0.46465,-0.4723,-0.46888,-0.88768,0.84096,-0.74704,0.49523
0.22037,0.29938,-0.52526,0.45586,0.45513,0.49085,-0.095424,0.61166,0.72797,-0.25568,0.64094,-0.33173,0.50644,-0.026166,-0.8553,-0.74473,-0.50805,-0.23602,-0.68423,-0.88755,-0.28916,0.76551,0.35177,-0.74513,0.19324,-0.49681,0.57401,0.76542,0.63745,-0.76416,-0.74756,-0.44762,-0.69021,0.15601,0.10423,-0.068292,0.91283,-0.42029,-0.53913,-0.61185,0.36736,-0.18322,-0.58585,-0.77211,0.59109,-0.63068,0.2705,0.76284,-0.24542,0.55856
0.086897,-0.69113,0.65371,-0.81668,0.25539,-0.17792,-0.97758,-0.62285,0.86998,-0.98171,-0.15937,-0.48939,0.38324,0.72938,0.16953,0.20814,-0.49112,-0.0031932,-0.3295,0.58569,0.89944,-0.46256,0.090275,0.10001,-0.078285,-0.93334,-0.0115,-0.75334,0.065372,0.6468,0.48749,0.39542,-0.161,0.6167,0.38278,-0.012878,0.60212,-0.39691,-0.41227,-0.47065,0.86343,0.65673,-0.85218,-0.16295,-0.88114,-0.21908,0.38289,-0.15904,-0.074634,-0.90769
-0.8599,-0.61378,-0.13678,0.14925,0.664,-0.55386,0.88395,-0.12071,-0.39491,0.093435,-0.41184,0.17549,0.43415,-0.57709,-0.83401,0.93041,0.94606,-0.20217,0.44561,-0.0069584,-0.034255,0.86496,-0.040659,0.45181,-0.053328,0.44419,0.11799,-0.66828,0.33726,0.7305,0.5686,-0.38777,0.35842,0.25872,-0.032728,-0.65451,-0.56777,0.6508,0.76374,0.92573,-0.432,-0.25782,0.57255,0.36184,-0.68845,0.5,-0.66249,0.52507,0.88342,0.73349
-0.80577,0.87664,-0.17522,-0.55594,-0.67216,0.38518,0.56543,0.014877,-0.2021,-0.15505,0.76529,0.29945,-0.034066,0.42473,0.38363,-0.64578,0.94142,-0.9975,-0.23377,-0.26615,-0.66129,-0.40409,-0.37449,-0.77643,-0.69689,-0.90497,-0.21262,-0.16697,-0.70877,0.67614,-0.97764,0.55642,-0.3108,-0.14471,-0.65543,-0.7355,0.49855,-0.0022581,-0.56703,-0.49089,-0.09671,0.72932,0.75015,-0.10105,0.27345,0.8555,0.069351,-0.15404,-0.74966,-0.71227
0.5866,-0.49839,0.77517,-0.82283,0.9654,-0.10276,0.9231,0.0015635,0.12333,0.55806,0.738,-0.051805,-0.062828,-0.31234,-0.78233,-0.88573,-0.76977,0.48701,-0.84308,0.24246,0.93838,0.58103,-0.029586,0.79571,-0.12805,0.10867,0.97025,-0.0030401,0.6956,0.23526,0.61711,0.63795,-0.68085,-0.28221,-0.24925,0.69595,-0.83402,0.075772,0.048136,-0.87697,0.75314,-0.43421,0.079251,-0.28945,0.097965,0.86906,0.95721,-0.60471,-0.689,-0.28628
-0.41072,-0.55743,-0.38003,-0.61741,0.61649,0.28837,0.033803,0.25035,-0.75812,0.53863,0.63559,-0.39788,0.0031525,-0.69097,-0.84221,0.39817,0.94718,-0.25793,-0.90664,-0.12188,0.62524,-0.54353,-0.13088,0.95493,-0.43491,-0.88628,0.40828,0.68333,-0.15949,-0.3646,0.89878,-0.19801,-0.12841,0.83318,0.5648,-0.039475,-0.83247,0.03161,0.80798,-0.34531,-0.60434,-0.26308,0.096013,0.17722,0.74856,-0.08206,-0.36105,0.77467,-0.78594,0.64215
-0.61102,0.62746,0.50612,0.99043,0.26057,0.63483,0.71361,0.85219,-0.48433,-0.70345,-0.91426,0.2458,-0.23839,0.40075,0.892,-0.77072,0.63377,0.38382,-0.53791,0.40221,0.26094,0.65632,0.13127,0.47286,0.59273,0.79751,-0.45653,0.89288,-0.90909,0.99766,-0.074036,0.23932,-0.60783,-0.69308,-0.52608,0.84351,-0.26434,-0.64037,0.71243,0.4311,0.14475,0.75975,0.40469,-0.099501,-0.58698,-0.36205,-0.80644,-0.29009,0.62688,-0.66768
-0.62966,-0.11718,0.65191,-0.99329,0.44726,0.79328,0.28662,-0.98285,0.70946,-0.69923,0.36732,0.78201,0.82153,0.84796,-0.029345,-0.47128,0.21762,-0.69299,0.54484,-0.88757,-0.80776,0.94511,-0.4834,-0.78426,-0.73295,0.046048,-0.99156,0.52101,-0.92131,0.15804,0.46321,-0.55559,0.72065,-0.35117,0.54597,-0.74938,0.88883,0.34769,0.88498,-0.90079,-0.19792,-0.15045,0.72554,0.40552,-0.73646,-0.77861,-0.51683,0.81588,0.089119,0.61749
-0.63207,0.52669,0.019909,-0.36658,-0.51469,0.77227,-0.68113,0.96618,-0.64327,0.072843,0.66991,0.74866,0.29382,0.55689,-0.9431,-0.97019,-0.43562,-0.78024,0.57767,-0.61599,0.59216,-0.52934,-0.78222,0.33037,-0.4984,0.44599,0.31543,0.12825,0.81134,0.39704,-0.39413,-0.49366,-0.44452,-0.59657,-0.84709,0.28513,-0.65392,0.09299,-0.68832,0.079658,-0.17586,-0.86318,0.73829,-0.9965,0.43663,-0.89921,-0.15927,-0.024523,-0.1769,0.27086
0.56814,-0.69946,-0.36288,0.39981,0.38903,-0.3519,0.12691,-0.60431,0.89221,0.12291,-0.47624,0.66253,0.69639,0.80012,0.25028,-0.83169,0.46269,-0.89685,0.29701,0.79459,0.54168,0.9097,0.92749,0.65376,-0.49893,-0.72169,-0.039937,0.13229,-0.66132,0.97611,-0.8921,0.21283,0.38796,0.68823,-0.46631,-0.69128,0.63494,-0.66893,-0.21834,0.17201,-0.62223,0.8761,-0.50607,0.064512,-0.43326,0.75814,-0.49928,-0.95215,-0.31244,-0.72275
0.045958,-0.81619,0.62468,-0.48939,0.21498,-0.59416,0.89103,-0.28915,0.75789,-0.37571,-0.85796,0.57261,0.28601,-0.28876,-0.50747,-0.2316,-0.93625,0.060934,0.49627,0.12,-0.1984,-0.6327,-0.86154,0.53595,0.6254,-0.47652,0.77883,-0.025801,0.71229,0.11906,0.76083,0.079338,-0.32534,-0.069405,-0.74975,0.98288,-0.47937,-0.87873,0.99723,-0.77408,0.39563,-0.62815,-0.54924,0.081018,0.38277,0.088346,-0.52874,-0.26472,0.49605,0.12883
0.5374,-0.6471,0.73825,-0.37304,-0.97451,-0.89148,0.97051,0.97135,0.40298,-0.59087,0.20138,0.061278,-0.69411,-0.92635,-0.23135,0.76993,0.49509,-0.70777,0.40794,-0.52439,-0.68597,0.47879,0.99519,0.86371,-0.73084,-0.49172,-0.82338,-0.24489,-0.55058,-0.17919,0.22882,0.1378,0.30817,0.9192,-0.23344,-0.50273,-0.98745,-0.71874,-0.63624,0.89603,0.40672,0.96592,-0.7619,0.48534,-0.61379,0.19393,0.5954,0.31778,-0.52262,0.19061
-0.1528,-0.58105,-0.42835,-0.41201,0.95305,0.71076,-0.18306,-0.033553,-0.15335,0.2385,-0.93223,-0.97956,-0.7687,0.71343,-0.40318,0.8665,0.88321,-0.27432,-0.31213,0.10984,-0.52066,-0.58375,0.87518,0.91043,0.75493,0.58397,0.90204,-0.8372,0.0047083,-0.97342,-0.99315,-0.55364,-0.11396,-0.97346,0.64192,0.70382,0.31087,0.93515,-0.14584,0.40874,0.78247,-0.68059,-0.68014,0.77876,0.20885,0.9082,0.65583,-0.23267,-0.93252,0.94156
0.60781,0.061277,-0.81041,0.15521,0.82657,0.64247,0.89992,-0.66407,0.24452,-0.071893,0.074017,-0.2106,-0.37383,-0.31988,-0.71315,-0.62827,0.049114,0.69591,0.61987,0.92297,-0.25195,0.33143,0.0901,-0.57733,-0.38503,0.78856,-0.82115,0.19092,0.60428,0.96781,0.92681,-0.61045,0.4686,-0.74099,-0.47738,0.56885,-0.79219,0.10547,-0.47992,-0.10858,-0.67621,0.72759,0.80583,-0.49708,0.26754,-0.27144,0.19757,-0.61236,-0.74683,-0.13266
0.87338,-0.48727,-0.1111,-0.14774,-0.040079,-0.77361,0.19235,0.91722,0.8931,0.23065,-0.55383,0.75919,-0.32976,0.47687,-0.73796,0.0051761,0.32941,-0.72902,-0.51787,-0.52138,-0.31538,0.04216,0.70552,0.37871,0.25078,-0.053746,0.13049,0.14675,0.78146,0.14577,0.28914,0.035127,0.019125,0.82769,-0.82573,0.79576,0.25974,0.19849,-0.34846,0.31306,-0.46855,0.28376,-0.59509,0.53487,0.040849,-0.79813,-0.69817,0.021872,0.63691,0.30624
-0.024038,0.95485,0.44546,0.057446,0.21903,0.92776,-0.31412,0.95341,-0.11121,-0.98767,0.35018,-0.96411,0.45315,-0.084968,-0.86542,-0.73223,0.13828,-0.58786,0.091078,-0.97377,-0.50603,0.59503,0.20396,0.85112,0.63023,0.19842,-0.38592,-0.59959,0.46262,-0.37169,-0.022275,-0.49643,0.42112,-0.61482,-0.92524,0.68417,0.63911,0.00037537,-0.7911,-0.22625,-0.16069,-0.3876,0.34086,-0.74472,-0.38522,0.5977,0.019114,0.72941,-0.72996,-0.55317
-0.27105,-0.91764,-0.22383,0.83896,-0.39676,0.60396,0.94628,-0.39103,0.98358,-0.031696,-0.96203,-0.77591,0.50179,-0.70315,0.60504,-0.32123,0.73878,-0.57323,-0.19369,-0.12414,-0.46043,-0.19607,-0.13744,-0.64116,-0.21492,-0.12854,-0.7796,0.24485,0.82196,0.47005,-0.64258,0.20203,-0.065627,-0.1241,-0.2322,-0.61518,0.3673,-0.33678,-0.82459,-0.66946,0.90328,-0.95159,0.65857,-0.92383,-0.31855,-0.55323,-0.64182,-0.098123,0.4232,0.21341
-0.1602,0.57185,0.58213,-0.92401,0.52504,-0.8422,-0.096186,0.3327,0.67624,-0.31214,0.69234,-0.61746,-0.096076,0.5539,-0.087599,0.16652,-0.40668,-0.50685,0.056663,-0.93703,-0.54758,0.92051,-0.88379,-0.15575,0.39919,-0.049717,-0.98634,-0.33337,-0.54724,-0.61008,-0.22215,-0.8611,-0.10474,-0.34459,0.40647,0.88337,-0.39631,0.94501,-0.66535,0.10731,0.43693,0.89602,-0.41496,-0.19056,-0.87174,-0.90225,0.015071,-0.23898,0.31163,-0.65767
-0.22102,0.43295,0.28258,-0.14243,-0.33548,0.40346,-0.42591,-0.68995,-0.023664,-0.75429,-0.56762,0.28253,0.48009,-0.36858,0.20235,-0.57507,-0.97861,0.13621,0.93419,0.092211,-0.94617,-0.1016,-0.37716,0.56442,0.32926,-0.68351,-0.82669,-0.32732,-0.20355,-0.4212,0.22077,0.26412,0.086726,0.51448,0.69954,-0.59371,0.41586,0.34714,-0.89676,0.766,-0.7416,0.13787,0.76961,-0.65299,0.33896,0.58485,0.47628,0.32466,-0.32081,0.91384
0.32608,0.47857,-0.94627,-0.77883,-0.51348,0.60024,-0.21321,-0.1421,0.83242,-0.040104,0.52551,-0.044971,0.63738,-0.78151,-0.33313,-0.27318,-0.14638,0.69161,-0.025485,0.20821,-0.81685,0.39364,-0.99126,0.23517,0.20984,-0.41095,0.4941,-0.21295,-0.71854,-0.34823,0.30408,-0.72796,-0.80825,-0.61413,0.62452,-0.013963,0.32099,-0.77901,0.75837,-0.22958,0.82913,-0.48455,0.24146,0.62822,0.38582,0.41685,-0.35569,-0.02778,0.54238,0.93726
0.93627,-0.16756,-0.83145,-0.54692,-0.23479,-0.37384,0.96727,0.089651,-0.60114,-0.12695,-0.52555,-0.55034,0.92172,0.96965,-0.56844,0.61895,-0.53215,0.11299,-0.78933,-0.2456,-0.82762,-0.89027,0.50551,0.69193,-0.11793,0.19,-0.90059,0.25495,-0.066741,0.37522,0.70658,-0.096105,-0.96955,0.43746,-0.94326,-0.80182,0.8384,0.43115,-0.34235,0.52661,-0.62963,-0.66672,-0.042532,-0.018208,-0.21027,0.17271,0.66205,0.12274,0.44442,-0.61317
0.50159,0.034101,0.13895,-0.67079,-0.88206,0.25204,-0.75677,-0.55789,-0.026162,0.356,-0.85596,0.053418,0.25622,-0.35788,0.12355,-0.92549,-0.10522,-0.50689,-0.13381,0.68984,0.87767,0.017144,0.90776,0.81239,0.96196,0.61748,-0.6282,-0.11707,-0.22007,0.53014,-0.039383,-0.44944,0.18648,-0.56396,0.27647,-0.81904,0.80051,0.79185,0.31328,-0.53655,-0.41656,-0.11931,0.25421,-0.19211,0.026376,-0.16205,0.3063,-0.86688,-0.83707,-0.72615
0.18639,-0.13559,0.85289,-0.074551,0.18403,-0.76742,-0.20481,0.89058,0.20244,0.32369,-0.13954,0.36287,-0.90327,0.97181,0.75089,0.94951,0.066854,-0.59347,0.85262,0.47856,0.20011,0.26898,0.93866,-0.33974,0.28471,0.86451,-0.32945,-0.60443,0.56051,0.26887,0.096839,-0.50566,0.51154,0.26132,0.87155,-0.60807,-0.35354,0.97148,0.10062,0.70569,0.25508,-0.63934,-0.007118,0.85029,-0.027609,0.47324,0.35558,0.88318,0.59898,-0.0060261
0.95636,-0.64156,-0.71059,-0.30805,-0.45841,-0.8352,0.43673,-0.070832,0.11493,-0.73427,0.18276,0.48842,-0.78475,-0.62663,-0.080092,0.64691,0.18074,0.1759,0.88779,0.11715,0.33227,-0.40516,0.64358,0.16528,-0.9949,0.17778,-0.69901,-0.49394,-0.80469,-0.80099,-0.97466,0.7048,-0.66234,0.10243,0.023588,0.11085,-0.334,0.66583,0.82143,-0.047265,-0.87122,-0.85677,0.55681,0.56222,-0.949,0.55714,0.95929,0.040004,-0.89362,-0.094836
0.10897,0.11735,0.23566,0.53092,-0.7144,-0.5803,0.43923,-0.064493,0.7459,-0.54888,0.94182,0.63654,0.53285,-0.40026,0.65656,-0.39703,0.40343,0.074354,-0.84899,-0.48061,0.53477,-0.0063865,-0.83409,-0.83527,-0.83609,0.75659,-0.92306,0.58116,-0.59524,0.33597,0.97544,0.18053,-0.58496,-0.7841,-0.65892,0.58098,0.52078,0.53238,-0.16201,0.2905,0.67916,-0.24446,0.93034,0.31163,-0.36629,-0.6425,-0.92746,0.53147,-0.16922,-0.90581
0.51111,-0.41573,-0.27025,0.59728,0.30027,-0.69227,0.36564,-0.84792,0.48442,-0.73205,0.36521,0.8408,-0.37611,0.9431,0.22561,0.15051,-0.96252,-0.72065,0.58649,-0.71451,0.34696,0.72568,-0.28349,0.48675,-0.57744,-0.42042,-0.39357,-0.81955,0.61617,-0.32099,-0.92512,0.10736,0.7921,0.29583,0.26924,0.041727,0.79653,-0.69919,-0.13134,-0.50936,0.7763,-0.10118,0.62941,0.79041,-0.28808,0.050195,-0.34062,-0.69874,0.67016,-0.17321
-0.46092,-0.48437,0.63365,0.27262,0.83883,0.75678,0.036171,-0.42197,-0.34971,0.07335,-0.20025,0.71585,0.79294,0.78583,0.41343,-0.018314,-0.79356,-0.90769,0.31034,-0.89623,0.15614,-0.18102,-0.47356,0.66829,0.82482,-0.13194,-0.78105,-0.88729,-0.99509,0.58805,-0.6117,-0.59145,0.093079,0.86071,0.38413,-0.30994,0.3524,-0.89286,0.50291,0.41263,0.89472,-0.32255,-0.12908,0.28332,0.86588,-0.66062,-0.72668,0.4785,0.95246,0.88916
0.70073,0.2015,0.1369,-0.48888,0.84847,-0.21097,-0.84402,0.65807,-0.91293,-0.89537,-0.89104,0.050337,0.65013,0.32561,-0.75489,-0.19428,0.28218,-0.032918,0.82124,-0.41381,-0.013546,-0.035631,-0.6955,0.75563,0.42208,-0.046485,0.85206,-0.29564,0.79612,-0.2379,-0.11851,0.68742,0.6138,0.022531,0.95407,-0.46657,-0.39162,0.073084,-0.12477,0.23871,-0.29219,-0.15855,-0.42533,-0.18357,-0.45364,-0.98181,-0.31337,-0.53419,0.33072,-0.338
0.2197,0.38139,0.97269,-0.99693,-0.34786,0.3628,0.14343,0.20051,-0.29119,-0.48855,0.27622,-0.64844,-0.6031,0.3076,-0.4008,-0.99538,0.73882,0.364,0.76262,-0.20829,-0.45502,0.59788,0.34603,0.86005,-0.30194,0.015053,0.57663,-0.82581,0.13975,-0.45203,-0.51303,0.21216,-0.06517,-0.081665,0.59379,0.089714,-0.93065,0.51443,0.38264,0.88077,-0.12729,-0.67301,0.59181,-0.44295,-0.43058,0.87489,-0.91953,-0.028954,-0.033401,0.12489
-0.0037624,-0.045384,0.30618,0.69901,0.86231,0.3112,-0.23924,-0.39471,0.51964,-0.10851,-0.81316,0.091128,0.75858,-0.29128,0.36478,-0.35052,-0.53737,-0.85478,-0.66449,0.14268,0.30081,-0.89795,-0.9145,-0.4082,-0.48843,0.043826,-0.81915,0.022089,-0.70172,0.74933,0.32536,0.5612,-0.90816,-0.66972,-0.1733,-0.80265,-0.66448,-0.76626,-0.48038,-0.65946,0.55143,-0.69121,-0.91739,-0.98128,-0.287,-0.69427,-0.49469,-0.64536,0.49007,0.79272
-0.12113,-0.76947,-0.60159,0.34955,-0.15922,-0.43899,0.57666,-0.72158,0.93356,-0.5956,-0.36425,0.78863,-0.50575,0.39218,0.50563,-0.27806,-0.13783,0.90469,0.46776,0.96908,-0.23557,0.029896,-0.92387,-0.76608,0.57912,0.9958,0.74081,0.64607,0.4538,0.97459,0.039742,-0.66437,0.10611,0.37585,0.53313,0.15403,0.93696,-0.3023,-0.84091,0.33393,0.48785,0.82176,-0.64572,-0.5778,-0.58497,0.95038,0.17134,0.54807,-0.38378,0.0039486
-0.6227,0.28012,-0.82965,-0.95894,0.17797,0.65536,0.46957,-0.25627,0.54235,0.77329,0.21317,0.099403,0.62045,0.042367,0.091354,0.41643,0.97519,-0.44093,-0.61539,-0.45165,-0.57611,0.2376,-0.84697,-0.50047,-0.34657,0.74022,0.052152,-0.55312,0.43651,0.92915,0.44118,-0.79382,0.25816,-0.23384,-0.25941,-0.68222,-0.13728,0.48229,-0.42605,0.12293,0.52624,-0.5667,-0.22671,-0.088515,0.69965,-0.0021833,0.22872,-0.49127,0.49099,-0.21477
0.74521,-0.056899,-0.74718,-0.33068,-0.56141,0.74793,-0.91389,-0.23843,-0.42854,0.14565,-0.1979,-0.36834,0.85791,-0.49585,0.44496,0.88295,-0.64615,0.39511,0.048093,0.99667,-0.97628,0.25246,-0.56517,0.53087,0.4647,-0.74003,-0.22995,0.19652,-0.86111,0.44212,-0.79005,0.069067,0.17672,0.14091,0.92617,-0.63279,0.5819,0.13303,0.91603,0.16581,0.1015,0.80581,0.65558,0.59024,0.73461,0.88377,0.87527,-0.19579,-0.40078,0.1473
-0.81402,0.99995,0.97404,0.53184,0.96438,-0.42187,0.14409,0.91658,-0.27484,0.21569,0.86939,0.13366,-0.66003,-0.29643,-0.074148,-0.50021,0.43183,-0.72129,-0.086449,0.19201,0.92998,0.06729,0.37472,0.021426,0.28617,-0.54715,-0.010873,-0.82925,0.057515,0.1278,-0.59871,0.65751,-0.41395,-0.55605,0.076622,-0.6887,-0.11274,-0.56441,0.7077,-0.83705,0.56691,0.81619,0.47489,-0.78749,0.11203,0.56129,0.15525,-0.57678,-0.30164,-0.76054
0.52214,-0.31119,0.9252,0.031972,0.96036,-0.1952,-0.35206,0.76389,0.47092,0.049922,0.92574,-0.01389,-0.24629,-0.63984,-0.91255,0.16553,-0.9395,0.87079,0.93126,-0.033378,0.23218,0.79224,0.72448,0.39617,0.05229,-0.054551,-0.51729,-0.91932,-0.62635,0.07811,0.89398,0.073383,-0.52177,0.062485,-0.29459,-0.99765,0.43702,0.152,-0.94747,-0.47018,0.684,-0.048658,0.26036,0.35413,0.68184,0.34173,-0.42399,-0.50332,-0.44583,-0.90355
-0.99055,-0.54,0.74655,-0.96113,-0.51477,0.62731,-0.16268,-0.59435,-0.54985,0.28598,-0.029766,-0.54828,0.29796,0.37449,-0.89905,0.52371,-0.68577,0.44967,0.16431,0.94664,0.55652,-0.24002,-0.62198,-0.44655,-0.45945,-0.75512,0.15553,0.88786,-0.60185,0.046651,0.89874,0.49285,-0.065791,-0.63247,0.52102,-0.69997,-0.67895,-0.26971,-0.10247,0.21402,0.0376,-0.1818,-0.71871,-0.6654,0.08909,-0.37166,-0.99848,-0.94661,-0.50212,-0.029109
-0.8456,-0.85772,0.53547,-0.36006,0.52315,-0.90013,-0.61594,-0.82423,0.81253,-0.41767,0.92465,0.99447,-0.049929,-0.62373,0.32401,0.9312,0.31643,0.49558,0.92394,0.90407,-0.091341,-0.26488,0.92127,-0.86594,-0.070641,-0.5933,0.70208,-0.08894,0.38648,-0.19824,0.29507,-0.71145,-0.19475,-0.31088,0.96457,0.76749,0.26834,0.75513,-0.75605,-0.17471,-0.045805,0.96053,0.85698,-0.059229,-0.032271,-0.29633,0.47861,-0.91593,0.55413,0.23769
-0.74247,-0.94002,0.13811,-0.082661,-0.91947,-0.80676,-0.59939,-0.08381,-0.96664,-0.34989,-0.85481,0.98336,-0.78489,0.73843,0.72717,0.4825,0.21513,-0.17868,0.36038,-0.11764,-0.12776,-0.77177,-0.94692,0.86939,0.99289,-0.054674,-0.77552,0.90777,-0.36778,-0.68114,-0.92348,-0.70823,0.84055,0.96653,-0.23721,0.061911,-0.86161,-0.75121,-0.54355,0.093959,-0.12022,0.43651,0.039441,-0.89162,0.27405,-0.32987,-0.71811,-0.80184,-0.5401,0.72159
0.8761,-0.67323,-0.88982,0.10907,0.1537,-0.36864,-0.03492,-0.75566,0.56141,0.59874,-0.61166,0.66166,0.38361,-0.28997,-0.017107,-0.99028,0.31832,-0.45578,-0.19213,-0.33473,0.78666,0.89696,-0.99498,-0.68919,0.97155,0.50353,0.61699,0.6206,0.7292,0.71914,-0.75329,0.85763,-0.93983,-0.17778,0.95778,0.64879,0.011036,-0.84091,0.6197,0.53106,0.42837,-0.52211,0.28767,0.2757,0.58407,-0.18489,0.72777,-0.18698,0.28779,0.19594
0.53878,-0.55569,0.6024,0.016039,0.40166,0.80667,-0.52121,0.61336,0.25605,0.56385,-0.99672,0.54302,-0.43645,0.4529,-0.14646,-0.4475,-0.10065,-0.43996,-0.74917,-0.0063502,0.3352,0.84377,0.38348,0.35843,0.35013,0.38927,0.45774,-0.064399,0.14777,-0.99819,-0.41205,0.30304,0.48098,0.36584,-0.83759,-0.93341,0.68279,0.89987,-0.28841,-0.57337,0.50505,-0.59549,0.90544,-0.52196,0.60733,-0.6673,-0.81177,-0.79261,0.76541,0.054372
0.093422,-0.25173,-0.050158,0.33448,0.06036,0.15217,-0.65973,-0.71252,-0.047933,0.25998,0.74823,0.61463,0.3173,0.68829,0.58461,-0.7633,-0.6056,0.66594,-0.065446,0.1513,-0.89418,-0.096744,-0.17104,0.070963,0.83908,-0.79876,-0.68574,0.65906,-0.60213,0.13907,0.362,0.77916,0.31612,-0.75706,-0.19906,0.68503,-0.99623,0.19208,0.74361,0.22144,0.61473,0.38528,0.64022,-0.5743,-0.13878,-0.64278,0.12373,-0.030974,0.52597,0.46317
0.5972,0.78071,-0.11835,0.12325,-0.020486,-0.6585,0.86748,-0.53761,-0.99805,-0.10193,0.72071,0.27466,0.66638,0.72548,-0.21868,-0.73487,-0.58544,-0.58684,0.90292,0.92697,0.35871,-0.5154,0.47356,0.92576,0.94069,-0.23701,0.31087,-0.55979,0.28268,0.60183,0.28857,0.051959,0.38472,0.011173,-0.65022,-0.36993,0.25314,-0.1773,-0.63711,0.10612,0.85983,-0.81577,-0.45024,0.062285,0.37593,-0.26851,-0.93394,-0.26786,0.74372,-0.86212
0.12903,-0.68449,0.84758,0.42577,-0.52112,-0.83945,0.36193,0.4139,-0.85297,-0.97637,-0.95904,-0.71703,0.22191,0.91111,-0.048231,-0.23768,-0.30327,-0.22866,0.78197,0.93483,0.9982,0.013641,-0.30537,-0.22192,0.73815,-0.12795,-0.88539,0.88101,-0.2012,-0.92052,-0.6247,-0.18787,-0.91186,0.50944,-0.034192,0.50697,-0.87136,0.98826,0.17552,0.29473,-0.076392,0.77253,-0.70941,-0.88717,-0.39691,-0.035312,0.44005,-0.50191,-0.16283,-0.95572
0.80415,0.14564,-0.48431,0.94151,-0.2397,0.093781,0.51698,0.55747,-0.082873,-0.75535,-0.98522,0.82287,-0.86919,0.75129,-0.66727,0.44199,0.40853,0.88044,-0.44534,0.96666,-0.69045,0.75808,-0.17401,0.69205,-0.91995,-0.50499,-0.38301,-0.40779,-0.97014,-0.25209,-0.16639,0.65337,-0.52442,-0.45124,-0.83898,-0.29279,0.85979,0.69375,-0.87047,-0.12768,0.9516,-0.25076,0.66699,-0.065141,-0.99772,0.24406,-0.39723,-0.51113,-0.46943,-0.64218
0.68714,0.23167,-0.69226,0.83206,-0.57026,0.667,-0.048004,0.37636,0.1844,0.51366,-0.34814,-0.46064,0.13499,-0.19286,0.11363,0.14904,-0.79832,0.97021,-0.39483,-0.12273,0.3,-0.17023,0.214,-0.80649,0.57831,0.20706,-0.29159,0.84033,-0.28934,0.32423,0.5647,-0.42087,0.75986,-0.62657,-0.94745,-0.97928,0.66623,0.32065,0.3722,0.55875,0.14245,0.30729,0.14111,-0.91924,-0.98297,0.73658,0.93826,0.68493,-0.94496,-0.034925
0.66744,-0.20104,-0.9458,-0.23326,0.14675,-0.71503,0.88744,-0.76326,-0.16549,-0.11702,0.60549,0.9843,0.9094,-0.54056,-0.89864,0.82873,0.14852,-0.25925,-0.60983,0.66046,-0.1521,0.43108,-0.56813,-0.38311,0.9509,0.80609,-0.93945,-0.38444,-0.24826,-0.21974,-0.77542,-0.66325,-0.51464,0.88765,0.12443,0.86545,0.64271,0.65858,0.55807,-0.77119,-0.29737,-0.088491,-0.16287,0.75873,0.86942,-0.60673,0.68599,-0.97464,0.77399,-0.78079
-0.60243,-0.71234,-0.52912,-0.42031,0.95387,0.80581,0.34606,0.33336,0.40478,0.42286,0.063146,-0.082494,-0.31909,-0.056111,0.36264,0.33647,0.67034,-0.98438,-0.21371,0.025748,-0.31398,-0.12787,0.34469,-0.46855,-0.56059,0.047232,-0.20956,0.50824,0.45469,0.15471,-0.17239,-0.068448,0.65715,0.63661,-0.16327,0.93775,0.52957,-0.44362,0.98519,-0.35293,-0.73645,-0.25486,0.74445,0.8983,-0.7695,0.69667,-0.83755,0.98304,0.79478,0.31294
0.29353,0.72922,0.61016,-0.44915,-0.7241,-0.21666,-0.047386,0.03419,0.38921,0.91645,0.91791,0.2712,0.64473,-0.099117,0.88425,-0.12812,-0.88467,-0.73837,0.93202,0.16254,0.99487,0.29483,0.81423,-0.40306,-0.75823,0.8179,-0.70457,-0.30748,-0.91433,-0.40339,0.55232,0.21765,-0.2051,-0.32486,-0.53298,0.28443,0.39493,-0.75593,-0.32874,0.93461,0.044034,0.082357,-0.96981,-0.92124,-0.49098,0.32538,0.16929,-0.80235,0.67252,0.77695
-0.853,0.46241,-0.88644,0.55727,-0.7826,-0.77951,-0.64368,-0.89991,0.23499,-0.48895,-0.78347,0.32097,-0.84629,-0.041806,0.32465,0.97646,-0.86428,0.23288,0.1538,-0.083551,-0.0023873,-0.28448,0.94458,-0.56753,-0.6809,0.68597,-0.679,-0.56495,0.82961,0.4722,-0.1217,-0.95622,-0.24305,0.74857,-0.87284,-0.20012,0.5991,-0.37151,-0.54102,0.7243,-0.84239,0.21039,0.65129,0.73395,0.74179,0.26307,-0.24731,0.96282,-0.083648,-0.62295
0.79185,0.42614,0.76931,-0.22431,0.19899,-0.3938,0.33437,0.81788,-0.18194,-0.77828,0.64199,-0.89182,0.12554,-0.64615,-0.76952,-0.53344,-0.76998,-0.41285,-0.97327,-0.053859,0.57759,-0.72966,0.99041,0.074837,-0.26119,-0.47891,0.81243,-0.99501,0.85828,0.85158,-0.22305,0.79331,-0.67297,0.47564,-0.97286,0.62243,0.79851,-0.28204,0.51891,0.74225,0.15244,-0.68437,-0.58788,0.25744,-0.17238,-0.15518,-0.58065,0.12888,0.87196,-0.81512
0.39414,-0.49493,-0.253,0.70398,-0.067299,0.86034,-0.16523,0.78375,-0.27814,-0.22014,0.37732,-0.91417,0.89857,-0.23933,-0.69085,-0.54663,-0.91614,0.62255,0.8407,-0.77378,-0.26311,0.034785,-0.74347,0.27906,0.4022,0.87537,0.49572,0.99937,0.11258,0.95643,-0.90027,-0.78272,0.0079174,-0.71789,0.56227,-0.58258,0.039549,-0.64426,0.73289,-0.45564,0.95062,0.62662,-0.70661,0.55438,0.52791,0.91795,-0.067205,0.87803,-0.96571,-0.13605
-0.59756,0.8993,-0.60072,0.70354,0.81456,-0.79759,-0.73934,-0.76653,-0.97409,-0.50125,0.62521,-0.44515,0.00041631,-0.26567,-0.41274,-0.16248,-0.42777,-0.61059,-0.49036,-0.22001,0.55942,-0.22937,0.97932,0.9377,0.78178,-0.50693,0.025876,-0.16807,-0.14425,-0.94869,-0.82224,-0.10343,-0.70938,-0.56628,0.33418,0.56697,-0.53384,0.88888,0.49394,0.074168,0.89429,-0.45658,-0.17508,-0.062267,-0.45068,0.033089,-0.41553,-0.69414,-0.87994,-0.56172
0.26047,0.37111,-0.38724,-0.53351,0.37699,0.48679,0.36533,-0.15068,0.93038,-0.53316,0.56122,-0.85151,-0.31053,-0.14748,0.85356,-0.60784,-0.53583,0.38618,-0.09624,-0.14105,-0.62184,0.42263,0.58478,-0.68838,0.7169,0.053689,0.90071,0.30215,0.83414,0.82546,-0.82497,-0.67746,-0.29983,-0.46142,-0.44267,-0.76014,-0.99063,-0.084021,0.0053938,0.045422,-0.79705,-0.53308,0.68289,0.94084,-0.68465,0.57097,0.17985,0.04771,0.0017442,0.41662
-0.96212,-0.57953,-0.79606,-0.4209,-0.96763,-0.14627,0.12031,0.21131,-0.71925,0.042565,-0.11926,0.26439,0.0090144,-0.52882,0.61609,-0.72371,0.83481,0.42388,-0.31741,-0.55189,-0.40373,0.68054,0.20116,0.86366,-0.38089,-0.83967,0.44675,0.46457,0.96321,-0.19902,-0.64922,0.68961,-0.99394,0.97673,-0.18466,-0.4526,-0.23944,0.91713,0.15433,-0.56267,-0.15479,0.52907,0.63902,0.48158,-0.43155,-0.67872,-0.032027,0.15476,0.79234,-0.40967
0.6171,-0.61432,-0.56915,-0.68946,-0.63168,-0.41965,0.79328,-0.23939,-0.56026,-0.23726,0.50918,-0.30522,0.062607,0.2576,0.15043,-0.48534,-0.25072,0.35995,-0.21586,-0.25455,0.23114,0.025946,-0.022777,0.8796,0.39593,-0.5395,-0.67138,0.48208,-0.77944,0.28597,0.2301,0.19885,-0.48977,0.87888,-0.34753,0.15347,0.10003,0.80764,-0.41588,-0.26276,0.3289,-0.03157,0.98626,0.29106,-0.49952,0.76941,0.80207,-0.9796,-0.68864,0.45415
-0.96659,0.30288,-0.3375,0.96531,0.59601,-0.46253,-0.47352,-0.49623,-0.37245,-0.43801,0.82044,0.1281,0.8564,-0.84305,0.12719,-0.42648,0.24891,0.29175,-0.40082,-0.29607,-0.54046,-0.70254,0.3887,0.99494,0.64068,-0.070967,-0.62937,-0.45093,0.40456,0.63623,0.3152,-0.32101,-0.07531,0.037412,0.79791,-0.06154,-0.12006,0.85119,0.02756,0.30053,0.61845,-0.88298,0.34603,0.93264,-0.79496,0.63469,-0.47471,0.28292,-0.54295,-0.48713
0.69224,-0.74245,0.27926,0.66269,0.78164,0.98344,0.16327,0.54892,0.78,0.066143,-0.72014,-0.99339,-0.51402,0.74296,0.10585,-0.17597,-0.018759,0.76676,-0.93739,0.84808,-0.0017648,-0.90563,-0.88534,-0.022128,0.22422,0.75942,-0.59442,-0.70461,-0.68166,0.044006,-0.72018,-0.4248,0.26981,0.75661,-0.18187,0.852,0.2123,0.32863,-0.9124,-0.44268,0.72319,-0.66491,-0.81223,0.11071,-0.38841,-0.22968,0.37189,0.80146,0.91963,0.8118
-0.67955,-0.78464,0.21893,0.19986,-0.42887,-0.37017,0.1461,0.93438,-0.77347,0.2753,0.64467,-0.85016,0.30475,-0.43864,0.87967,-0.59001,0.4245,-0.90209,0.079116,0.30414,0.20727,0.75231,0.33925,0.0074165,-0.39746,0.93986,-0.91743,-0.49772,-0.67724,-0.97953,0.42138,0.010974,-0.1381,-0.56695,0.29471,0.070711,-0.81324,0.74634,-0.21357,0.53591,0.53373,0.98882,-0.67586,0.36756,-0.21985,0.67083,0.90249,0.12626,-0.45677,-0.7202
0.42514,0.80922,-0.36866,-0.17746,0.5975,-0.49629,-0.86596,0.07433,-0.67982,-0.59685,-0.37738,0.50163,0.16707,-0.0052308,0.317,-0.32095,0.90496,-0.94274,0.83166,-0.87819,-0.95909,0.25761,0.98442,0.76753,0.39616,-0.20186,0.86749,0.097492,0.27612,0.99866,0.95032,-0.036512,0.8287,0.8444,0.4087,-0.39211,-0.12809,0.43084,0.72801,-0.71193,0.68484,0.5816,0.77634,0.91745,0.4134,0.71238,-0.38291,0.082353,0.27294,0.3781
-0.25625,-0.47021,-0.84498,-0.65272,0.75237,-0.11039,0.35208,0.55356,-0.89503,-0.074897,-0.45679,-0.89917,-0.51284,-0.77358,-0.35372,0.0068497,-0.61787,-0.96252,-0.43042,-0.99908,-0.46179,0.29783,-0.34655,0.38817,0.35045,0.80287,-0.81197,0.90233,-0.56074,0.6067,-0.69521,0.71512,0.46628,0.80195,-0.81182,0.094652,0.9405,-0.20078,0.63211,0.15389,0.51242,-0.013798,-0.83551,-0.36218,-0.46799,-0.5459,-0.37601,0.76778,0.27577,-0.83685
0.13881,-0.84609,0.012088,-0.85472,-0.62158,0.78003,-0.98518,-0.72743,0.61315,-0.78908,0.65173,0.030352,-0.63227,0.32783,-0.92757,0.84151,0.17826,-0.158,0.82389,0.87794,0.39903,0.33421,-0.8423,-0.75402,-0.5019,-0.89007,0.92477,-0.18577,0.069237,0.41741,-0.81425,-0.38645,0.8399,-0.75602,-0.29953,-0.99767,-0.52039,-0.71792,0.30442,0.87917,0.13419,0.48008,-0.79469,0.53483,0.94596,0.25119,0.34933,0.47278,-0.032646,0.98041
0.91036,-0.39257,0.098454,0.93751,-0.19926,-0.84636,0.15346,-0.37725,0.64039,-0.29231,-0.52738,-0.64967,-0.90243,0.14412,0.94421,0.84929,0.49054,0.56924,0.20297,0.844,-0.0349,-0.86184,0.4639,0.46144,-0.43652,-0.37764,-0.99796,-0.82207,-0.29965,0.29378,-0.54484,0.96754,0.24907,0.3068,0.41078,0.26835,0.32348,0.011909,-0.51119,-0.84952,0.20035,-0.71118,-0.08081,0.27367,-0.068017,0.96128,0.88564,-0.78737,0.22081,0.079937
0.24924,0.3341,0.47948,-0.42902,0.39777,-0.36866,0.52546,-0.5759,-0.30408,0.33623,-0.57795,0.52585,0.056002,-0.71393,-0.072008,-0.14177,-0.36059,0.90118,-0.73698,-0.88198,0.054415,-0.12051,-0.42203,0.6394,0.63054,0.7126,0.2124,-0.44462,0.010778,0.056542,-0.82284,0.064948,-0.80152,0.0024828,-0.081387,0.3721,-0.68291,-0.29569,0.99125,0.10116,-0.75468,-0.91793,-0.4794,-0.95652,-0.22105,-0.20191,-0.76434,0.85733,0.88551,-0.88413
-0.87448,0.26171,0.8715,0.64858,0.30163,0.83846,-0.29675,0.46255,0.99421,-0.059414,0.5976,0.19142,0.31535,-0.84184,0.18208,-0.18067,0.4608,-0.10784,-0.96671,-0.10085,0.89523,-0.29645,-0.068338,0.3545,-0.23716,0.71625,0.92958,-0.32927,-0.027429,-0.28767,0.41484,-0.013069,0.49172,0.8061,0.21359,-0.14294,-0.36946,0.14989,-0.01059,0.7273,-0.33119,-0.69808,-0.59906,-0.81705,-0.26756,0.33808,0.75951,-0.80419,0.31285,0.51126
-0.5884,-0.83972,-0.9876,0.72088,-0.73176,-0.44678,0.65281,0.69912,-0.44361,-0.62544,-0.38965,0.79159,-0.34005,0.0082459,0.44128,0.99187,0.26164,-0.80317,0.47892,-0.096862,0.24956,-0.4812,0.93034,-0.49894,-0.27364,0.16852,0.3792,0.12767,0.87028,0.42872,0.94227,0.45124,-0.81593,0.5966,-0.57959,-0.38408,-0.87111,0.46213,0.27771,-0.48982,0.94246,0.50812,-0.50902,0.55794,-0.75645,0.55405,0.40901,0.85782,-0.83374,-0.9325
-0.85604,-0.26528,-0.67694,0.066995,0.43,0.2475,0.60571,-0.0021854,-0.031589,-0.94068,-0.24706,0.64258,-0.66332,0.057624,-0.97658,0.92544,0.80115,0.88846,-0.91217,0.23298,0.78973,-0.9072,-0.99632,0.71928,-0.56881,-0.52284,0.88118,0.23391,-0.8593,0.90418,-0.21071,-0.63226,-0.12933,-0.68893,0.071613,-0.036101,-0.50378,-0.093546,0.67425,-0.43799,0.022785,-0.45502,0.36621,-0.94247,-0.20441,0.14364,0.86124,-0.055696,-0.062272,0.87029
-0.96339,0.84229,0.83373,0.30543,0.80266,-0.016456,-0.7906,0.3389,0.56646,0.048684,-0.96047,0.33704,-0.66908,0.5073,0.66055,0.63948,-0.16937,0.7724,-0.5413,-0.6083,0.77897,0.75918,0.045898,-0.38528,-0.39344,0.12282,-0.0063944,0.7865,0.76219,0.56492,-0.11428,0.77248,0.96379,-0.85326,-0.19605,0.81825,-0.12613,0.95922,-0.53565,0.35585,-0.35917,-0.68561,0.29845,-0.76868,0.67753,-0.069552,-0.1728,-0.54915,-0.45059,0.81521
0.077833,0.63184,-0.83281,0.92401,0.2935,0.012856,-0.87187,-0.13982,-0.67856,-0.23204,0.18945,0.24295,-0.90827,0.4826,0.25485,0.31728,-0.42709,-0.078006,-0.65201,0.64652,0.037718,-0.31993,0.80213,0.72013,0.39358,0.92809,0.20747,-0.65356,0.1099,0.7417,0.62872,0.36086,0.78561,-0.70122,-0.37249,-0.79424,0.40208,0.55191,0.67797,-0.67117,0.10593,-0.45628,-0.22711,-0.86268,0.89646,0.70314,-0.76135,0.9751,0.14693,-0.29171
0.80255,-0.48212,-0.29209,-0.28319,-0.70538,-0.34142,-0.58522,-0.54894,0.74238,0.10505,0.050299,0.97735,-0.54173,-0.64546,0.99369,-0.97019,0.886,-0.027046,-0.029598,0.14948,-0.90769,-0.58817,0.81738,0.98852,-0.1963,0.19279,0.50123,0.60621,-0.64797,0.99474,0.9074,-0.75965,0.011801,0.39579,-0.25318,0.021396,0.81761,-0.59012,-0.74072,-0.33297,-0.31148,-0.78852,0.96088,-0.25487,0.16288,-0.28794,-0.69503,-0.60447,-0.21596,-0.41406
0.64965,-0.21088,-0.44851,0.63047,-0.35874,-0.96907,-0.47356,-0.40332,0.52986,0.88647,-0.96272,0.15708,0.15363,-0.399,-0.88882,-0.22957,-0.34559,0.32805,0.44901,0.2106,-0.47148,-0.83434,-0.91265,-0.15613,0.17315,0.89008,-0.019758,-0.85007,0.73329,0.81085,0.67179,0.32676,0.2522,0.4951,-0.90997,-0.78937,-0.86751,-0.36632,0.36029,-0.52998,0.29099,-0.78957,-0.59322,-0.75609,0.40718,-0.12059,0.031093,-0.53845,0.21969,0.83454
-0.12631,0.35713,-0.60955,0.35701,-0.033586,0.23233,-0.023285,0.98956,-0.011917,0.11753,-0.22859,-0.020261,-0.18873,-0.42111,-0.35547,-0.20911,0.99443,0.82402,0.10841,-0.69258,0.80789,-0.11762,-0.056017,0.94223,0.56945,0.13568,-0.94165,-0.92945,0.36159,0.072985,-0.42211,0.62167,-0.014161,-0.23984,-0.76426,0.81028,-0.28525,-0.58092,0.94496,0.55131,0.17468,0.041124,0.28591,-0.91607,-0.51033,-0.08446,0.36536,0.40854,-0.55206,-0.82987
-0.80704,-0.98998,-0.28449,-0.51637,0.57744,0.96602,0.53526,0.63983,0.20071,-0.79535,-0.30862,0.32408,-0.67332,0.56969,0.97016,-0.8285,0.94466,0.01495,-0.5325,-0.13821,-0.29376,-0.18595,-0.73543,0.75745,0.99594,-0.63706,-0.86966,0.31903,0.61019,0.87045,0.64833,0.15707,-0.33811,0.08936,-0.96905,0.82984,-0.46095,0.72665,-0.2307,-0.1359,-0.18137,-0.58591,-0.064896,0.18101,0.89045,0.046565,-0.27257,0.09936,0.96798,0.63412
-0.18637,-0.11604,-0.42812,-0.97978,0.91866,0.20559,0.97966,-0.37355,-0.87341,-0.55338,-0.76626,0.61889,-0.26206,-0.51775,0.55806,0.99327,0.51425,0.49549,-0.43823,-0.34758,-0.35683,0.97887,0.26221,-0.14855,-0.575,0.34995,0.7762,-0.39145,0.54749,0.78107,0.98809,0.13808,-0.99512,-0.37934,-0.2791,-0.7377,0.80011,0.57092,-0.97795,-0.23878,-0.47488,-0.77045,-0.12133,0.96208,-0.4546,0.20087,0.72505,0.048675,-0.44324,-0.17229
-0.2316,-0.81021,-0.82068,-0.76593,-0.045402,0.022296,-0.29426,0.87297,-0.56853,0.5241,0.044549,-0.70539,0.20443,0.095243,0.44163,-0.19599,-0.68764,-0.61384,-0.82523,0.41063,0.71121,-0.70804,0.77647,0.86167,0.61829,-0.043309,-0.28037,0.29822,-0.14374,0.14598,0.46974,-0.48191,0.67934,-0.21091,0.39645,-0.54633,-0.74949,-0.56352,0.20707,0.28646,-0.72431,0.53996,-0.35245,0.85558,-0.024607,0.60926,-0.29596,0.3296,0.81088,-0.5107
0.28788,0.043745,-0.75118,0.057076,0.012933,-0.012071,-0.2359,0.4043,-0.66456,-0.88981,0.77102,-0.78712,0.92576,-0.56398,0.47205,-0.14322,0.62473,0.47351,0.81859,0.89245,0.058133,0.68046,0.53577,-0.88592,0.38111,-0.76472,-0.2561,-0.11742,-0.91045,0.07267,-0.58973,0.76002,-0.05539,0.89556,0.45193,0.48589,0.48552,-0.41671,0.31399,0.42923,0.42704,0.77214,0.37272,-0.47995,0.024668,-0.94628,-0.70502,-0.46144,0.93621,-0.84146
0.12658,-0.21369,-0.05918,-0.10832,0.1624,-0.58007,0.94238,0.72407,-0.90356,0.29622,0.94508,0.96269,0.98243,0.32975,-0.78528,0.81209,0.95646,0.072893,-0.21746,-0.050166,-0.84632,-0.35686,-0.77532,0.44162,0.70652,0.82227,-0.75046,0.14786,0.26341,0.054716,0.43235,0.49821,0.9006,0.23208,-0.48275,-0.59436,0.93829,0.75466,-0.99533,0.83504,-0.093001,-0.73518,-0.49084,-0.539,-0.40525,-0.1916,0.84022,-0.032783,0.1147,-0.80105
-0.61114,0.9752,0.046348,-0.5278,0.51413,0.27709,-0.072796,-0.77873,0.082391,-0.663,0.46305,0.65198,-0.8601,0.5463,0.75068,0.93724,-0.1984,-0.73116,0.79604,0.061192,0.9946,0.018431,-0.89304,-0.24642,0.98362,0.57704,0.5165,-0.32253,-0.86825,0.41466,-0.65812,-0.49853,0.17286,0.6361,0.66888,0.16805,-0.87642,-0.29289,0.17584,-0.38245,0.6913,0.49772,-0.74366,0.86844,-0.052851,-0.37185,0.94358,-0.076811,0.84855,-0.80805
0.23456,0.31525,-0.31351,0.57561,0.56537,0.47544,-0.0059301,-0.53803,0.89826,0.03129,0.060086,0.4454,-0.53635,0.90917,0.73521,0.45724,-0.7791,0.061078,0.48338,-0.63195,-0.68428,-0.37044,-0.41412,-0.74184,0.2868,0.084904,-0.67841,-0.47035,0.15062,-0.98722,-0.43065,-0.69455,-0.47722,0.11813,0.0024411,-0.7608,0.24737,0.87013,-0.67523,-0.25047,-0.92214,-0.09562,-0.66722,0.8269,-0.98069,0.18184,-0.68469,-0.53963,-0.73073,-0.22936
-0.35381,0.15471,0.16589,0.11145,-0.55242,-0.49694,-0.67319,-0.049611,-0.41721,-0.43608,0.99954,-0.63835,-0.44878,0.58345,-0.87734,0.028962,0.10139,0.22041,0.91647,0.93845,-0.32121,-0.98421,0.69017,-0.4185,0.92288,0.48772,-0.30829,0.78936,-0.67544,-0.97475,-0.60868,0.088268,-0.86441,-0.43086,-0.061653,-0.28658,0.14152,0.61444,-0.77319,0.79846,-0.39991,0.45998,-0.9633,0.99595,-0.10907,-0.36759,0.97574,0.29966,-0.64738,-0.92817
0.74662,0.52597,-0.31707,0.98262,-0.68499,0.3095,-0.8823,0.83603,-0.04307,0.29928,-0.30816,-0.85708,0.6199,-0.29547,0.55057,0.011552,0.27508,-0.091297,0.64154,0.11232,-0.63287,0.46071,0.37535,0.40991,-0.15095,0.84343,-0.48523,0.21714,0.42759,0.48319,-0.83021,0.66107,-0.83854,0.62132,-0.65311,-0.71212,-0.89727,0.71608,-0.76338,0.42582,-0.83919,0.50328,-0.74528,0.33101,-0.73063,-0.41289,-0.79175,-0.35126,0.56088,-0.55582
0.5141,0.59763,0.66352,-0.024952,0.1725,0.19045,-0.015651,0.20172,-0.49647,-0.22573,-0.26945,-0.82984,0.95161,0.29364,-0.79825,0.70675,0.58212,-0.3745,-0.36189,0.98443,0.91548,-0.73935,0.87424,-0.28205,0.49154,0.33137,-0.036358,-0.16726,-0.24815,-0.16918,-0.50515,-0.539,0.32637,-0.69222,-0.69568,-0.64546,0.68551,0.056591,0.56544,0.88929,-0.59627,0.49143,-0.5676,0.11246,0.95253,-0.30613,0.30695,0.41146,-0.92491,0.71109
0.50412,0.81791,0.7229,-0.2141,0.038086,0.0781,-0.67031,-0.4914,-0.35964,-0.17788,-0.97801,0.58166,-0.99975,-0.8766,0.54239,-0.17727,-0.88322,-0.0045936,-0.74004,-0.2265,0.83781,-0.75295,-0.414,-0.76603,0.97136,-0.012782,0.28737,0.92173,-0.56652,0.28287,-0.59835,-0.81673,0.55495,0.75165,-0.062924,-0.85925,0.47229,-0.36318,0.58959,-0.2885,-0.76698,0.54254,0.27912,0.70076,-0.15248,0.36187,0.06469,-0.15474,-0.93463,0.96852
0.081238,-0.38195,-0.47762,0.58946,0.69539,-0.82671,0.5816,-0.11357,0.2266,-0.86692,-0.98476,-0.38309,-0.055227,-0.80491,0.56185,0.14293,-0.26343,0.12178,0.55442,-0.97379,0.87064,0.8539,-0.98928,-0.75873,-0.68473,-0.70052,0.056103,-0.42383,0.88207,-0.18555,-0.43815,-0.54759,-0.60471,-0.45475,-0.40146,-0.42047,0.61192,0.67396,-0.89331,0.19752,-0.5897,0.50235,-0.12197,0.45622,-0.21002,0.2674,-0.98109,0.91026,-0.86509,-0.14797
0.078229,-0.66614,-0.92788,0.9622,0.11591,0.97805,-0.49743,-0.67183,0.47282,-0.24087,-0.58321,0.32629,-0.050025,0.37361,-0.9335,-0.49453,0.76898,0.78645,0.87634,-0.12724,-0.18916,0.029587,0.42513,0.36286,-0.74147,-0.51992,0.86253,0.78508,-0.82364,0.99536,0.90901,0.98001,-0.14918,0.96048,0.14865,0.26021,0.12319,-0.98406,-0.91542,-0.045702,0.87885,0.46366,-0.47782,-0.51582,0.14123,-0.73636,0.76116,-0.16906,0.18651,0.95742
-0.84336,0.7107,-0.26372,-0.42945,-0.48704,-0.84365,-0.62939,0.17818,0.98275,0.056132,0.52372,0.59042,-0.74135,0.83453,-0.19317,-0.90185,0.3821,-0.64732,-0.98794,0.50963,-0.49459,-0.69512,-0.40382,-0.78323,0.5579,0.94845,-0.47148,-0.23859,-0.78183,-0.15421,-0.26377,-0.91255,0.30652,0.2627,0.92339,0.61202,0.80786,0.51783,-0.63905,-0.95596,-0.46131,-0.21977,0.72119,0.44987,-0.82914,0.43709,-0.74474,0.52658,0.47058,0.2149
-0.30945,-0.44411,-0.057863,-0.10447,0.04757,-0.82291,-0.38593,0.048416,-0.96034,-0.09325,0.58532,0.23451,-0.2671,-0.19567,-0.60823,-0.22225,0.13811,-0.24309,0.84459,-0.66256,0.76328,0.77717,-0.16378,0.35297,0.44242,0.80672,0.22702,0.8475,0.74891,-0.80537,-0.55318,0.95136,0.89871,-0.59156,0.87306,-0.53791,0.11247,-0.28756,-0.043664,-0.59944,-0.69247,0.99289,-0.86103,-0.52048,-0.47862,0.1358,-0.33448,0.25462,0.1051,0.36015
0.38728,-0.60925,-0.33627,0.761,-0.49078,-0.96896,0.7507,0.49215,0.8138,0.18065,-0.3163,0.12478,-0.030837,-0.64002,0.19336,0.22785,0.87889,0.59359,0.81431,0.67693,-0.55587,-0.20444,-0.36154,-0.10953,-0.56093,0.43101,0.4521,0.17233,0.52083,0.096966,0.57275,-0.19528,0.43027,0.067784,0.46807,0.87846,0.27236,0.18331,-0.032472,-0.42807,0.3115,-0.93706,0.065957,-0.60042,-0.97556,0.97582,-0.37941,0.79023,-0.067565,0.75855
-0.45062,-0.16879,0.39772,0.59114,-0.71889,0.9085,-0.81422,-0.71041,0.46837,0.93427,-0.88576,0.67061,0.60736,-0.86502,0.31235,0.72999,-0.38766,0.013496,-0.37932,-0.45835,-0.11082,-0.428,0.074166,-0.27925,-0.55109,-0.62677,-0.58523,-0.29843,-0.81128,-0.29517,-0.19272,-0.18473,-0.29731,0.5877,0.60875,-0.65958,-0.082297,-0.021578,0.58166,-0.60985,-0.16897,0.55375,0.79112,-0.071926,0.369,0.61363,-0.73496,0.69102,-0.31273,-0.75954
-0.71323,-0.79939,-0.39971,-0.98372,-0.94017,0.0962,0.2734,0.59511,-0.6623,-0.81229,-0.60802,-0.089359,0.365,-0.86007,0.0012098,0.11103,0.59833,-0.58561,-0.035506,-0.4328,-0.25862,-0.25046,0.01663,-0.68835,0.1413,-0.49142,-0.20534,-0.40725,0.19681,-0.41272,-0.42414,0.47822,-0.15985,0.29671,-0.60856,-0.61844,-0.57518,-0.80636,-0.24071,0.083746,0.20963,0.79859,0.11001,-0.079967,0.3995,0.6317,0.84607,-0.48623,-0.0029248,-0.50526
0.2322,-0.97954,-0.50034,-0.92545,0.38275,0.2119,-0.68108,-0.67251,0.88494,-0.8836,0.16767,-0.64075,-0.95809,0.80839,-0.48915,-0.50727,-0.2158,0.57728,0.16742,-0.82218,-0.23074,-0.38541,0.45762,-0.07102,-0.93926,0.012696,0.64583,-0.32002,0.41585,0.50968,-0.15627,-0.50692,-0.64445,0.50481,-0.00047956,-0.1129,0.9946,-0.90421,-0.29952,-0.062785,-0.71745,-0.5202,0.74346,-0.074978,-0.37387,-0.15522,-0.35959,0.1079,-0.43247,0.71309
0.095446,-0.91532,0.50287,0.089342,0.14508,-0.97448,-0.825,-0.56206,-0.52369,0.73501,0.84917,-0.97947,-0.73337,-0.1474,-0.53867,0.26195,0.89015,0.72634,-0.5064,0.14939,-0.61623,0.57237,-0.41865,-0.32775,-0.018987,0.32858,0.22383,0.26992,-0.04097,-0.29498,0.29242,-0.51365,-0.37004,-0.90428,0.55596,-0.2671,-0.48311,-0.037879,0.43376,-0.3062,0.59603,-0.94403,-0.049544,-0.077419,0.29533,0.84935,0.53582,0.99358,0.15125,-0.33694
-0.80325,0.14785,-0.14853,0.052424,0.059168,0.09826,0.52372,-0.96154,0.87198,0.39137,-0.25974,0.8178,0.27464,-0.16896,-0.50186,0.0045204,-0.48421,-0.91009,-0.13485,-0.51244,-0.4816,0.47709,0.3088,-0.72733,-0.53656,0.32317,0.009762,-0.71381,0.81238,-0.80194,-0.65922,0.2417,-0.70335,-0.53735,0.49959,0.24585,-0.55052,0.89959,-0.65911,-0.58911,0.55169,0.89709,0.43657,0.34213,0.14875,-0.47039,-0.87375,0.55161,-0.69053,0.46339
0.37859,-0.47893,0.46688,-0.53333,-0.61108,0.011748,0.06754,0.50969,-0.31916,0.69245,-0.5053,0.31936,-0.16982,0.082495,-0.14717,-0.73107,0.13723,-0.19401,0.21695,0.7507,0.90853,-0.080977,0.10553,0.0098024,-0.79596,0.8602,0.087332,0.55923,-0.81699,-0.34635,0.74639,0.7701,-0.64947,-0.92267,-0.88641,-0.85766,0.86684,0.58425,-0.65008,-0.24737,-0.66888,-0.10045,0.090865,-0.53947,0.79368,0.88913,-0.75875,-0.82362,0.62272,0.68894
-0.37769,0.033862,-0.069735,-0.2504,-0.093657,0.60613,0.41625,-0.17063,-0.50635,0.19956,-0.73222,-0.25377,-0.85107,0.62724,-0.40237,-0.56948,0.74771,-0.78774,-0.048259,0.87457,-0.2648,0.6038,-0.03997,-0.88539,0.82255,0.558,-0.015569,-0.43834,-0.40052,0.55812,0.42815,-0.52317,-0.31491,-0.79396,0.41941,0.13198,-0.34274,0.20418,-0.47128,-0.88797,-0.51116,-0.79032,-0.50792,-0.011072,-0.95375,0.91581,-0.63367,0.09611,0.82577,-0.42373
0.82971,0.21925,-0.79832,0.32169,-0.58113,0.018264,-0.75827,-0.19727,0.23713,0.57635,0.76746,0.23781,0.73181,-0.01554,-0.84223,-0.61856,0.3623,0.94979,-0.047891,0.4019,-0.99499,0.033537,-0.4512,0.65498,0.14602,-0.43316,0.68085,-0.4081,0.196,-0.80404,-0.68011,-0.33132,0.45479,-0.22282,-0.91139,-0.97212,0.75724,0.72691,0.97445,-0.99783,0.63097,-0.32828,0.57055,0.74146,-0.12732,-0.40837,0.89426,0.83698,-0.83023,-0.48117
0.55902,-0.64503,0.15326,-0.75107,-0.045392,0.51581,-0.24188,0.62252,0.84993,-0.27909,-0.035522,-0.67435,-0.29356,-0.20395,-0.60259,0.11889,-0.50119,-0.36121,0.65696,0.17361,0.95843,-0.87612,0.47514,0.038013,-0.77672,-0.9158,-0.14474,-0.21003,0.93735,-0.34583,-0.82523,0.18726,-0.37608,-0.9481,-0.61163,-0.54292,-0.34583,0.98384,-0.82183,-0.58343,0.76916,0.52263,-0.030091,-0.11797,0.93395,0.92619,-0.61206,-0.16751,-0.057361,-0.25144
0.075612,-0.86287,-0.097186,-0.018677,0.44907,0.95796,0.17212,-0.93019,0.27375,0.79533,-0.31841,-0.71895,0.73113,-0.31156,-0.647,0.51591,0.17732,0.33978,-0.26156,0.16975,-0.76778,0.75735,0.64537,-0.60103,0.3329,0.72714,0.18263,-0.36564,0.51016,0.54531,-0.76154,-0.85326,0.063369,-0.42599,0.00099166,-0.14841,-0.099262,-0.74987,0.71621,0.34999,-0.18594,-0.23702,0.023326,0.11692,0.4981,0.8027,0.19162,-0.9692,0.43541,0.67757
-0.19552,0.89998,0.34905,-0.82295,-0.92226,0.82665,0.24257,0.37352,0.95836,-0.74499,-0.35368,-0.73596,-0.33654,0.79891,-0.83642,0.3246,-0.25058,0.033125,0.54423,0.095415,-0.39941,-0.47708,-0.45761,0.29015,-0.5437,0.88602,0.89188,-0.53206,0.39114,-0.38559,0.9927,0.43741,-0.45611,0.79639,-0.77267,0.58569,0.00541,-0.34476,-0.22638,-0.13624,0.16662,0.18298,0.87311,-0.95221,0.037434,-0.59164,0.67051,0.84575,0.87855,-0.98033
0.6108,0.35932,-0.4279,-0.99221,0.25686,-0.35013,-0.47634,-0.49215,0.60429,0.15088,0.42652,0.91859,0.39086,-0.45868,0.28097,0.42156,0.98272,0.97611,-0.50872,-0.099867,-0.90966,-0.51153,0.024873,-0.97122,0.99982,-0.85045,-0.35504,-0.52715,-0.52111,-0.62011,0.22757,-0.24382,0.042989,0.2002,0.053995,-0.28259,0.080563,0.55407,-0.46357,0.96473,-0.36896,0.010497,-0.24468,0.13014,-0.1356,0.52103,0.17582,-0.058531,-0.67422,0.023762
-0.66239,0.45991,0.45557,-0.55853,0.57743,0.099014,0.50578,-0.37985,-0.034917,0.44203,-0.21973,0.2217,0.29059,0.41333,-0.54546,0.090334,0.42555,-0.51367,0.59881,-0.10437,0.14998,-0.99719,-0.99972,-0.035834,0.21178,-0.43344,-0.74849,-0.24538,-0.14604,0.85185,-0.46524,0.83977,0.94305,-0.88672,-0.47217,-0.57973,0.022025,0.16159,0.57322,0.98984,0.4609,0.58345,-0.68895,-0.35926,0.84361,-0.14694,-0.25056,0.90697,-0.72474,0.5195
0.48501,0.13704,0.75688,0.28329,0.9355,0.70161,0.953,-0.032076,0.17321,0.43733,-0.33774,-0.35964,0.12372,-0.07677,0.89781,0.12044,-0.88288,0.52331,0.57873,0.45278,-0.28136,0.39438,-0.27206,-0.30861,0.057293,-0.88671,0.22698,-0.84768,0.17007,0.13748,-0.49887,0.25475,-0.87815,0.39805,0.21774,0.2046,-0.86774,0.11481,-0.58499,-0.84917,0.051316,0.38943,-0.31945,-0.040193,-0.36545,-0.42468,0.85512,-0.68947,-0.16965,-0.2334
-0.42885,-0.010132,-0.93287,0.13878,-0.97395,0.44751,-0.28631,0.6554,0.61944,0.42221,0.015499,-0.42701,0.85387,0.21772,-0.70332,-0.3489,-0.10407,0.32353,-0.066497,-0.68548,0.25085,-0.17084,-0.39604,-0.61998,0.81289,-0.58412,0.26813,0.60113,-0.10114,-0.5866,0.49871,0.019424,-0.50018,-0.72398,-0.046141,-0.13246,0.20078,0.51307,0.97795,-0.011132,0.3912,0.48298,-0.94198,0.91636,-0.34017,-0.99085,0.7328,-0.80999,-0.96941,-0.4625
-0.51186,-0.22702,0.4899,0.12117,0.81193,0.46598,0.74236,-0.12945,-0.23036,0.57824,-0.93363,-0.79776,0.17819,0.82557,-0.1987,0.9327,0.49929,-0.92037,0.79008,-0.59367,0.40218,0.63894,-0.12694,0.068472,-0.70933,-0.049423,-0.21713,-0.5446,-0.30234,-0.59864,-0.31122,0.36076,-0.56666,0.2776,0.38772,0.51135,0.231,-0.40784,-0.12085,0.96291,-0.085732,0.92117,0.40851,-0.82855,-0.17767,0.049575,0.58399,-0.57849,-0.348,0.80682
-0.47504,-0.85134,0.38389,-0.93678,0.84863,0.88281,-0.83688,-0.36896,0.3179,-0.017462,0.56424,0.40899,-0.17666,0.30501,-0.18087,-0.77316,-0.80883,-0.9938,-0.22082,-0.95686,0.77383,-0.70182,-0.10513,-0.57368,0.073083,0.051951,-0.6286,-0.61452,0.67251,-0.36782,0.44319,-0.842,-0.44163,0.39828,-0.14929,0.010659,-0.23156,-0.41912,-0.58087,0.14139,-0.23695,0.15825,0.46164,0.87503,-0.98588,0.74427,-0.078541,-0.17748,-0.32466,0.91309
-0.26754,-0.26791,0.7505,0.25217,-0.50146,0.34648,0.75795,0.41003,0.22006,-0.2653,0.41593,0.73035,0.043298,0.31021,0.18926,0.33966,-0.4236,-0.73759,0.9047,0.77105,-0.66649,-0.87256,-0.30365,-0.95289,0.10575,-0.57462,-0.64854,-0.47986,0.66968,0.76938,0.53831,-0.87076,0.65192,0.5935,-0.59963,0.67498,0.089727,0.76099,0.83476,-0.29663,0.7616,0.92887,-0.82416,0.56553,-0.55813,-0.55663,0.89275,-0.84786,0.79616,0.63036
0.79818,0.52916,-0.51765,0.28841,0.93277,-0.023244,0.51231,0.076693,0.094001,0.57146,0.5559,-0.97922,0.75641,0.90597,-0.15349,0.76368,-0.094581,-0.15642,-0.57992,-0.4819,-0.96697,0.1337,-0.51548,-0.47742,-0.36978,-0.63997,0.62623,-0.84163,0.85598,0.43991,0.9878,-0.69593,-0.32855,0.29391,0.77524,-0.94672,-0.17382,0.89764,-0.78241,-0.29056,0.3089,0.99581,-0.97671,-0.19764,-0.62703,-0.21422,-0.00015293,-0.76053,-0.44885,-0.15637
0.69795,-0.63112,0.65256,0.091067,0.037462,-0.3137,-0.19003,-0.73725,-0.59491,-0.82468,-0.49115,0.35177,-0.077635,0.99011,0.80669,0.47545,0.75237,0.96483,-0.67775,-0.61719,0.9769,-0.29915,0.73738,0.71765,-0.36975,0.47613,0.55527,0.50442,-0.0043362,0.051682,-0.36339,0.15725,-0.55685,0.89444,0.45724,0.55902,-0.98338,0.028515,-0.01975,-0.13154,-0.0098369,-0.45977,0.40582,-0.90435,-0.60742,0.24577,-0.9602,-0.64436,-0.35405,0.037725
0.023482,0.038086,0.59881,0.69217,-0.51832,0.73667,0.22873,0.52238,0.061161,-0.16129,-0.38642,-0.65806,-0.12925,0.30323,-0.98209,0.87618,0.68301,0.73537,0.39022,0.67653,0.88189,0.49367,0.61894,-0.47034,0.52667,0.089281,0.21227,-0.55704,0.39954,-0.87394,-0.052113,0.0023035,-0.66776,0.75671,0.4463,-0.33806,0.2721,-0.703,-0.89242,-0.20643,0.66931,0.15544,0.0015423,-0.65053,-0.44068,-0.88438,-0.39766,0.96819,0.17252,0.7752
-0.78667,0.63062,0.60389,0.59748,-0.55415,-0.3161,0.35035,-0.17685,0.15984,0.99877,0.63604,0.1388,0.1877,0.40948,0.35152,-0.067713,0.15191,0.12205,-0.58466,-0.73166,-0.27173,0.81078,0.84422,0.41877,-0.5444,-0.92311,-0.38023,0.2433,-0.53005,-0.89089,-0.58644,-0.67692,-0.3766,0.47815,0.25032,-0.036942,0.4696,-0.97266,-0.28511,0.50276,0.5238,-0.81294,-0.51926,0.83347,0.45023,-0.61889,0.85653,0.24546,-0.079564,-0.65065
0.19509,-0.043225,-0.81016,0.75395,-0.093688,-0.29894,0.71508,0.51921,-0.5335,0.16122,-0.72568,0.51503,-0.85008,-0.56277,0.87733,-0.44276,0.56154,0.30286,0.94175,0.35896,0.50339,-0.8297,-0.52837,0.48449,-0.18331,-0.73372,0.22987,-0.83269,-0.90821,-0.12153,0.5692,-0.65051,-0.28622,-0.20032,-0.83568,0.42712,0.58217,-0.72521,-0.54776,-0.44282,0.97476,-0.79544,0.047451,0.2641,-0.37809,-0.66289,-0.52348,-0.32127,0.027744,0.43204
0.12211,-0.29426,0.26596,0.42248,0.9406,-0.55226,0.48556,-0.67839,0.99728,0.52402,0.39513,-0.68092,-0.92841,-0.61884,0.27141,-0.043059,0.24606,-0.15752,0.27179,0.93466,-0.9568,-0.081807,-0.15292,-0.37042,0.85824,-0.84146,-0.096224,0.57975,-0.51888,0.10444,-0.23562,-0.65953,-0.35213,-0.24318,-0.17183,0.61498,-0.076153,-0.28067,0.56881,0.68191,0.22604,0.51209,-0.16282,-0.25094,-0.58387,-0.090885,-0.48211,0.69307,-0.27945,-0.26961
-0.98287,0.58253,0.76869,-0.66524,-0.74087,-0.86423,0.70379,0.32762,-0.37023,-0.25335,0.87971,-0.0015105,-0.4118,-0.43079,0.14794,0.77119,-0.31466,-0.70117,-0.54862,-0.94553,0.74202,0.50068,0.85038,0.4588,0.078902,0.75014,0.20764,-0.96238,-0.21135,-0.93882,-0.52969,-0.24674,-0.44396,-0.36122,-0.76797,0.8356,-0.45686,-0.7374,-0.2222,0.55677,-0.72124,-0.65688,-0.43327,-0.3627,-0.61128,-0.79405,0.20308,0.74289,-0.9486,0.538
0.035814,-0.79714,-0.41111,0.82586,-0.67769,0.87501,-0.020939,-0.80282,-0.59469,0.10301,-0.2081,-0.86134,0.51377,0.29079,0.019324,0.4899,-0.88809,0.54755,-0.48207,0.083341,0.47188,-0.73223,-0.91541,-0.10977,-0.75406,0.6924,0.26437,-0.71431,-0.45378,0.34654,-0.11604,-0.39181,-0.40889,-0.58704,-0.71239,-0.98746,-0.54205,0.81068,-0.65995,0.13446,0.30731,-0.62931,0.29269,-0.98221,0.24579,0.25673,-0.32762,0.70517,0.81429,0.26817
-0.4692,0.68125,-0.48258,0.54002,-0.98259,-0.39977,-0.81495,0.5433,-0.47605,0.81335,-0.24754,-0.75248,0.53593,0.22794,-0.2332,-0.32056,0.53814,0.44068,-0.87735,0.2887,0.37464,-0.8179,-0.076831,0.60776,0.083413,-0.0019732,0.49696,0.12097,-0.76768,0.47768,-0.93572,-0.1333,-0.23599,0.51158,-0.73887,0.52589,0.76791,0.95249,0.46253,0.75514,0.45748,-0.63989,-0.91237,0.62687,-0.27971,0.88544,-0.051869,-0.45306,-0.78094,0.65649
-0.063917,0.24717,0.1175,-0.32999,0.3261,0.84372,-0.15098,-0.95493,0.63257,0.81683,-0.88806,0.3186,-0.82072,0.74372,0.73716,-0.87352,-0.24376,-0.56213,-0.89074,0.48314,0.18926,0.61563,-0.14466,0.36603,0.78517,0.72887,-0.91032,-0.60018,-0.027349,0.88358,0.65959,0.77251,0.72582,0.90469,0.77424,0.16568,0.30356,-0.5874,-0.92782,-0.76314,-0.083421,0.14377,-0.3083,0.018858,0.43802,0.75726,0.060729,0.1965,-0.58133,0.5924
-0.56137,-0.29375,0.6603,0.78223,-0.70657,-0.55693,-0.49976,-0.42465,0.75446,-0.094961,-0.74389,-0.030008,-0.38917,-0.44055,0.22862,0.27517,-0.79674,-0.10493,-0.9815,0.17766,0.3279,0.58808,0.95241,-0.013016,-0.18011,0.004951,-0.092982,0.34888,0.60838,0.27554,0.75521,-0.25783,0.40821,-0.15627,-0.62879,-0.34626,-0.94908,-0.83958,0.036434,0.71393,-0.48874,0.095922,0.96,0.32541,-0.18949,-0.1711,-0.7118,-0.013341,-0.25689,-0.10388
0.79426,-0.82425,0.48076,0.68426,-0.59892,-0.097807,0.2162,0.41177,0.2791,-0.90261,-0.79604,-0.0057006,-0.59044,-0.53388,0.40213,0.87406,0.23339,-0.5477,-0.67622,0.80736,0.090585,0.16858,0.41603,-0.50066,-0.27385,0.11553,0.9173,-0.49908,0.93661,-0.16799,0.89185,-0.84826,0.49002,0.75598,-0.42429,-0.36951,-0.23294,0.94633,-0.25799,0.82894,0.75453,-0.12724,-0.83382,0.96781,0.8615,0.9716,0.54412,0.49609,0.38617,0.036223
-0.60155,0.98061,-0.63204,-0.59701,-0.45372,-0.54021,0.71725,0.62439,0.8223,0.4974,0.51274,-0.28164,-0.9763,-0.47784,0.91001,0.54161,-0.50492,0.93671,0.17057,0.85246,0.14873,0.5305,0.82997,0.92831,-0.73341,0.0057287,-0.19136,-0.17447,-0.21256,-0.49547,-0.2042,0.35434,-0.52264,-0.75097,-0.067919,0.35689,0.76032,-0.59642,0.50368,-0.53404,0.3825,0.85598,-0.25667,0.84294,0.96252,-0.60036,0.37777,-0.5543,-0.069983,-0.86641
0.32077,-0.83171,0.70242,0.53267,-0.56649,-0.048436,0.41175,0.44238,0.12963,0.050082,0.73203,-0.70196,0.29488,0.14656,-0.5433,0.79558,0.96436,-0.8168,-0.82717,0.25412,0.81037,0.061393,0.21121,-0.11966,0.79913,0.70695,-0.022688,0.21646,-0.73773,-0.015773,-0.28294,0.90751,-0.74739,0.48189,0.6283,-0.70008,-0.22974,-0.2988,-0.45574,0.90979,-0.4246,-0.42588,0.73986,-0.59093,-0.73809,-0.73608,0.74931,0.65776,-0.53509,-0.85687
-0.5638,0.60463,0.38688,0.074022,0.17657,-0.4572,0.30243,0.64984,0.1429,-0.54505,0.99319,0.40113,0.41221,0.87444,0.45527,0.41349,0.82163,-0.37697,-0.87062,0.81469,-0.91377,0.37681,0.51112,-0.17889,-0.83542,-0.5674,-0.16276,-0.5407,0.54263,0.78634,0.7565,-0.022516,-0.39199,-0.43779,-0.3512,-0.31633,0.71102,0.21424,-0.79433,-0.87871,0.39128,-0.01835,-0.042347,-0.32799,-0.1185,0.16275,0.64024,-0.044967,-0.64311,-0.13437
0.31998,-0.68637,-0.86099,-0.22226,-0.71612,-0.29251,0.57048,0.77786,0.47336,0.59911,-0.80304,-0.974,0.56019,0.87769,-0.60191,-0.79194,-0.075519,-0.63952,0.078453,0.39585,-0.38311,0.065603,-0.29995,-0.37458,0.5711,-0.35649,-0.11902,0.08093,-0.76054,0.29902,0.99852,-0.73706,0.66848,-0.25569,0.56329,0.94674,0.69351,0.096599,-0.24872,0.13733,0.13983,-0.3532,-0.81605,-0.34285,0.44928,-0.86912,-0.13848,0.68144,-0.35741,-0.74328
-0.44939,0.91973,0.87372,-0.78346,-0.38467,-0.27269,-0.16879,-0.31261,-0.77151,-0.35194,-0.65486,-0.66042,0.69485,-0.68921,-0.117,-0.34384,-0.80646,0.16693,0.65138,-0.95867,0.45985,-0.84973,0.44079,-0.27716,0.72213,0.33707,0.84958,-0.66238,0.24528,0.9202,-0.66286,0.56372,-0.058698,0.96885,0.081681,-0.28146,-0.16266,-0.73218,0.40803,-0.13854,0.80825,-0.082394,0.96453,0.5076,-0.14139,0.91198,-0.72478,-0.98321,-0.46796,0.35444
-0.14001,0.60353,0.10554,-0.62954,-0.0086206,0.31414,-0.77513,-0.054402,-0.30034,0.6201,-0.030955,-0.66774,0.35029,-0.68387,-0.32202,0.13002,0.61837,0.15872,-0.29101,-0.65443,-0.13837,0.4826,-0.63264,0.040386,0.080195,-0.15588,-0.38449,-0.082116,0.20269,0.351,0.82642,-0.30469,-0.59207,0.44737,0.71194,0.7428,-0.018087,0.25303,0.18616,0.29178,-0.83776,-0.97012,-0.30412,-0.60657,-0.73884,0.062296,0.25667,-0.75932,0.20926,-0.83376
0.97191,-0.75833,0.06441,-0.90637,-0.9828,-0.4407,0.60434,0.34598,-0.0269,0.99696,0.87454,0.85189,0.37152,-0.52033,0.33799,-0.54921,0.028891,-0.46452,0.041432,-0.10958,0.48609,0.44605,0.90854,-0.78171,-0.19362,0.07902,0.11552,-0.47549,-0.53401,0.57916,0.97193,-0.25189,0.12157,0.9724,0.86607,0.1887,0.84401,-0.81723,0.80807,0.59385,-0.69554,0.63913,-0.20651,-0.38069,0.47702,-0.0031079,0.79845,-0.06255,0.76805,0.39103
-0.8035,0.75122,-0.34962,-0.087769,0.086181,-0.88004,-0.31151,-0.77963,-0.77268,0.74355,0.019192,0.41664,0.62926,0.59823,0.96477,0.096635,0.61366,-0.73771,0.063186,-0.92133,-0.7316,0.53962,0.43425,-0.60304,-0.0028646,0.33234,-0.84361,-0.45622,-0.37114,-0.18946,0.58174,-0.64603,0.50853,0.22781,-0.30687,0.27472,0.81584,0.27755,-0.82598,0.65941,0.50889,0.89306,0.2479,-0.7048,0.71172,-0.11328,0.54507,-0.88198,-0.71891,-0.5248
0.54033,0.73453,0.46485,0.87043,-0.21753,-0.26203,0.40583,-0.7255,0.47026,-0.34329,-0.56742,-0.67956,-0.99314,0.017548,0.33948,-0.65283,-0.94773,0.34449,0.70807,-0.70835,0.99349,0.64149,-0.19998,-0.12343,-0.24229,0.022836,0.90007,0.20216,0.81568,-0.29927,0.63903,-0.73825,0.43736,-0.54078,0.083482,-0.37987,-0.16079,-0.0035154,-0.077034,0.60106,0.28126,-0.55404,0.036388,0.30094,0.71407,0.82283,0.79224,0.087235,0.071111,0.25447
0.94018,-0.08786,-0.39567,0.064042,0.10312,-0.47502,0.29894,0.67794,0.088783,0.30593,-0.89707,-0.35765,0.76076,0.95175,-0.71944,0.3962,0.31071,-0.53542,0.62491,0.39021,0.10013,0.78181,0.51054,-0.40261,0.93824,0.4572,-0.75588,0.4877,0.053999,-0.3948,0.12548,-0.089388,0.4572,-0.53536,0.72427,-0.72153,0.36474,-0.23435,-0.25091,-0.90072,0.9464,-0.068537,-0.20884,-0.56299,0.19436,-0.75837,0.94671,-0.42531,0.93893,0.20663
-0.76605,-0.91356,-0.57772,-0.94752,0.30204,-0.15886,-0.99866,-0.2121,-0.74126,-0.49385,0.29991,0.38152,-0.10506,-0.81105,-0.078427,0.61319,-0.30096,-0.92014,-0.86767,0.18831,0.46543,-0.8892,-0.72061,0.11661,-0.47414,0.70879,-0.24732,-0.25058,0.61558,0.63166,0.33609,0.81356,0.50424,-0.27938,-0.81763,0.26331,-0.66977,0.077054,-0.0024414,-0.56658,0.47125,-0.87661,0.93943,-0.52042,0.65616,0.16669,-0.53957,0.085282,-0.95965,-0.24009
0.38501,-0.70028,-0.69788,0.25173,-0.85788,-0.60007,-0.47637,0.66082,-0.88215,0.85789,-0.19401,-0.096045,0.64102,-0.34347,-0.95453,-0.69898,0.79344,-0.91761,-0.54253,-0.0013356,0.013713,-0.94328,-0.80576,-0.81914,0.033165,0.81075,0.84193,0.8664,0.16705,0.04332,0.21918,-0.23173,-0.10174,-0.8237,-0.86174,0.59921,-0.99979,-0.40746,0.90685,-0.66553,-0.8893,0.58748,-0.47649,-0.67725,-0.30564,-0.40955,0.94575,0.59202,0.38738,0.88502
0.25768,0.98035,-0.80114,0.30457,0.62217,0.56365,-0.53372,-0.95693,-0.79035,-0.12002,-0.55835,-0.95034,0.65676,0.99134,-0.27029,0.37966,0.70255,0.91843,-0.11001,0.47509,0.1496,-0.82954,-0.61192,-0.046855,-0.097188,-0.9937,0.87771,0.50338,-0.32119,-0.59794,0.66427,0.89519,-0.55507,-0.66066,0.9869,-0.047537,0.17681,-0.70893,0.0074496,-0.33471,0.18602,-0.033051,-0.62527,0.95744,0.38115,0.52981,-0.69758,-0.021612,0.1517,-0.9925
-0.33756,-0.016257,-0.63835,0.19258,-0.85625,-0.7338,0.65604,0.94914,-0.86234,0.032921,-0.90399,-0.32114,0.74413,-0.010845,-0.33386,0.38834,-0.70705,-0.20878,-0.71461,-0.39718,-0.87351,0.4795,-0.088611,-0.82661,-0.67532,-0.07366,0.42642,-0.32444,-0.88927,-0.19864,0.80992,0.9062,0.85588,0.54811,0.2763,-0.18767,0.59921,0.30997,0.39711,0.39281,0.73719,0.78959,-0.7606,0.42516,-0.80747,-0.99972,0.82817,-0.35649,-0.73788,0.45558
0.2742,0.86096,0.67749,0.01343,-0.78863,-0.31559,0.024631,-0.78778,-0.27952,-0.7908,-0.067091,0.56682,-0.44985,-0.075289,0.85429,-0.15591,-0.49646,0.12587,-0.12346,-0.31078,0.83905,0.64262,-0.60117,-0.073696,0.051239,0.0731,-0.026345,0.5669,-0.71963,-0.52359,0.62716,0.97401,0.98532,-0.091494,0.56046,-0.58686,0.68849,-0.96317,0.63552,-0.14701,-0.18296,0.60312,0.25563,-0.22114,-0.32986,0.95985,-0.39189,-0.26647,0.87413,0.082247
0.25784,-0.89095,-0.3238,-0.86385,0.96372,-0.37217,-0.24619,0.43169,-0.11314,0.39958,0.14087,-0.1722,-0.82178,-0.085502,-0.36359,-0.40165,0.57125,-0.99634,0.89014,0.37437,0.32193,-0.63803,0.59241,0.13195,-0.56578,-0.53296,-0.29014,-0.57851,0.44365,-0.20374,0.74364,-0.004711,0.5429,-0.12806,-0.31494,-0.55459,-0.79851,0.23693,-0.389,0.20334,0.84661,-0.71198,0.92651,-0.841,0.52708,-0.06379,0.77497,0.063238,-0.63092,-0.56237
-0.52915,-0.38148,0.50272,-0.71105,0.17584,0.7578,0.29046,0.91291,-0.33838,0.21326,0.45901,0.487,-0.99115,0.96866,0.26914,-0.70858,-0.091641,-0.97737,-0.40171,-0.9315,-0.57473,0.66613,0.13368,-0.28257,0.26473,-0.43713,0.84725,0.55543,0.50672,0.43683,0.91857,-0.94086,0.31028,-0.96616,-0.006441,-0.51276,-0.079629,-0.73199,0.38365,0.91775,0.32458,-0.33928,0.11167,-0.72766,-0.45124,-0.82217,-0.82467,-0.15797,0.5213,-0.61619
0.3453,0.75556,0.80662,0.7562,-0.34864,0.096829,-0.6706,0.67201,-0.70123,0.04862,0.94089,-0.14526,0.86867,-0.32186,0.45995,-0.056369,0.56196,-0.55064,-0.80277,-0.11051,0.34186,-0.92369,-0.97304,0.25992,0.50205,-0.6613,0.19279,0.51192,0.33256,-0.16762,-0.22667,0.70783,0.47736,-0.20492,-0.20782,0.51242,0.40105,0.94971,0.030367,-0.11091,0.15324,-0.85751,-0.38366,0.45065,0.26409,0.5103,0.65029,-0.81025,0.59086,-0.025691
-0.44543,-0.92643,0.031562,-0.010498,0.98798,-0.88665,0.15683,-0.20395,0.74862,0.30568,0.0054238,0.36922,0.46306,0.36079,-0.57979,-0.39638,0.59616,0.97026,-0.92015,-0.21955,0.57906,-0.092778,0.43135,-0.18281,-0.69584,-0.68769,-0.42361,-0.35349,0.16195,0.23354,0.22002,-0.99503,-0.05701,0.39125,0.66296,0.74507,-0.18498,-0.79981,-0.037688,-0.48553,0.67301,-0.84272,0.78968,-0.88309,0.98543,0.098279,-0.37266,-0.31009,-0.79116,0.40855
0.85614,0.92196,-0.14235,0.20647,-0.1573,0.62546,0.14244,0.56325,0.14893,0.97868,-0.25268,0.8108,0.64237,-0.25789,-0.23172,0.26118,-0.44372,-0.28408,0.13216,0.42408,-0.82998,-0.25781,-0.58595,0.29604,-0.91761,-0.15589,0.19009,0.076758,0.48092,-0.59921,-0.58445,0.51303,0.052159,0.56839,-0.22738,-0.63429,-0.63204,0.70382,0.39057,-0.18102,-0.84674,0.70908,-0.36779,0.19416,0.14078,0.77151,0.25798,-0.82065,0.52896,-0.85222
0.41908,0.020226,-0.54234,0.010292,-0.47483,0.318,-0.12386,-0.056952,0.98971,0.59096,0.51009,0.55413,-0.71744,0.57516,-0.76543,-0.89083,0.72777,-0.81194,0.93767,-0.10699,0.043384,-0.14807,-0.76304,0.23985,-0.62577,-0.52408,0.12181,-0.047735,0.50813,-0.91748,0.16276,-0.47394,-0.29876,0.37329,0.85095,0.77419,0.36137,0.31966,-0.0059716,0.66037,-0.66103,-0.36991,-0.0338,0.93378,-0.95414,-0.46605,-0.06513,0.6718,-0.085998,0.95373
-0.049612,0.82568,-0.24572,-0.35153,0.71529,-0.76563,-0.46586,-0.34736,-0.46648,0.28868,-0.14539,-0.076679,0.40297,-0.89526,-0.74192,-0.97079,0.99882,0.31367,0.41238,-0.23204,0.23036,-0.81124,-0.016757,0.8041,-0.8973,0.7437,0.00052396,-0.024279,-0.46481,0.11336,-0.63296,0.7645,0.86225,0.79126,-0.21663,-0.35684,-0.047367,-0.71786,0.29076,0.025933,-0.61297,-0.62083,-0.8218,0.7123,0.41469,0.83885,0.79754,0.27915,-0.77535,-0.1273
-0.1777,0.14752,0.99092,0.28131,0.19585,-0.44111,0.38344,-0.52323,-0.54084,0.76789,0.23786,-0.12189,0.39633,-0.77821,0.36772,0.82316,0.60738,0.63609,0.84656,0.2455,0.47028,-0.014899,-0.23807,0.93925,-0.65554,-0.41616,-0.076837,-0.79703,0.83944,-0.89078,0.39373,-0.086476,-0.069675,-0.18787,0.20196,-0.77736,0.74425,0.70355,0.67959,0.85393,-0.0096419,0.29146,0.70719,-0.0004955,-0.62693,-0.4644,0.71332,-0.0099522,-0.71913,0.26871
0.52943,0.44503,-0.42469,-0.93243,-0.99564,0.061423,0.95043,-0.66341,0.011135,-0.56979,0.66892,-0.99075,-0.25534,0.49395,0.42253,-0.38318,-0.70222,-0.6996,-0.18897,-0.94043,0.15076,-0.10093,-0.31054,-0.13908,0.12683,-0.75551,0.025923,-0.40954,0.57167,-0.13847,0.45621,-0.29916,0.10042,-0.026046,-0.37804,-0.44795,-0.42475,0.493,0.30273,0.31104,-0.39059,0.41608,0.18525,-0.63282,-0.76891,0.96005,-0.92369,0.99131,-0.20283,-0.30425
-0.39444,0.80723,-0.73697,-0.87938,0.71295,0.46455,0.81103,-0.71908,-0.10816,-0.15084,-0.79788,0.7151,0.13805,-0.3541,-0.19086,-0.10708,0.11213,0.78369,-0.82208,-0.28437,-0.75613,0.43496,0.15202,0.94944,0.34363,0.6475,-0.060777,-0.69936,0.90728,-0.15226,0.12766,0.38929,-0.98653,0.8266,-0.47435,-0.40812,0.20138,-0.36929,-0.065099,-0.65966,-0.23802,-0.1355,0.43955,-0.08424,-0.92282,-0.83209,0.54785,0.77069,-0.97414,-0.98366
0.88968,0.57128,0.023311,0.78887,-0.98204,0.65271,0.34647,0.0649,0.17081,0.93988,0.0098835,-0.13857,-0.25696,-0.022561,-0.98709,-0.21652,-0.42148,0.019738,-0.54951,-0.10514,-0.32277,-0.15294,-0.55968,0.038368,-0.54343,-0.6979,0.12631,0.017041,0.62428,0.038382,-0.86527,0.72552,-0.38936,0.14319,0.77397,0.44128,-0.15816,-0.76136,-0.48011,-0.1591,0.23792,0.75187,-0.50119,-0.91062,0.18074,-0.80532,-0.054508,-0.65754,-0.86779,0.74276
-0.017418,0.17092,0.46731,-0.22632,0.61218,-0.54117,0.1734,-0.98575,0.67688,0.31629,0.63035,0.4238,0.23908,-0.83348,-0.3055,-0.52248,0.75551,0.47615,0.70221,0.56226,0.086602,0.37557,0.40977,0.14766,0.93505,-0.45993,0.32371,0.22508,0.02184,-0.8411,-0.8922,0.3259,0.097527,0.43718,0.040201,-0.794,0.5648,-0.38465,0.58053,-0.77723,-0.71719,0.79169,0.10023,0.10561,0.9166,0.31036,-0.67978,-0.84362,0.99896,-0.97597
0.35932,0.58196,-0.36731,-0.73667,-0.97444,0.84517,-0.15953,-0.85647,-0.20487,0.19557,-0.23973,-0.27991,0.39051,-0.19993,0.14789,0.82355,0.52543,-0.044824,0.20655,-0.3545,-0.24734,0.058403,-0.46086,0.53609,-0.67859,-0.1328,-0.073564,-0.1342,0.44167,0.65688,-0.055313,0.25125,-0.46942,0.28544,0.20486,-0.34138,0.10558,-0.21647,-0.72099,-0.8499,-0.44223,-0.69736,-0.29568,0.84312,-0.76206,0.74548,0.46656,0.26737,-0.38942,-0.61426
-0.35364,0.49658,-0.87331,0.58686,0.093597,-0.26509,0.075349,0.70406,0.60073,-0.37827,-0.72926,0.56288,-0.25965,-0.65403,0.064903,0.41837,0.50678,-0.070618,-0.90104,0.93445,0.38365,-0.89793,0.91653,-0.91874,0.21921,0.92403,-0.25706,0.66321,0.50834,-0.45366,-0.43697,-0.065407,0.24344,0.1817,0.21578,0.72194,-0.96301,-0.6591,0.52626,-0.079034,-0.42069,-0.339,0.90193,0.1206,-0.47426,-0.53581,-0.90384,-0.55187,-0.20238,0.11807
-0.22991,-0.37152,0.73394,0.61904,-0.20573,-0.9239,-0.24651,0.20606,-0.42773,-0.98363,0.4537,0.2101,-0.24159,-0.35247,-0.54359,-0.73847,0.8986,0.88833,0.47593,-0.23737,0.90586,-0.066689,0.42226,-0.89158,-0.90178,0.59296,-0.66052,-0.52244,0.26872,-0.013316,0.6934,-0.8239,0.97884,0.48476,0.7161,0.045942,-0.3365,0.51119,0.53222,-0.86929,-0.14197,0.024969,-0.79396,0.0004068,-0.024108,0.11759,0.92834,0.84054,-0.40034,-0.39181
0.049622,0.0043127,0.31764,-0.52172,-0.42293,0.29778,-0.76315,-0.20845,-0.71831,0.96974,-0.80271,0.083922,-0.3015,-0.22574,0.9604,0.4801,0.14051,-0.6825,0.1553,-0.97432,0.98526,0.92026,-0.99344,-0.15911,-0.24185,0.21341,0.84313,-0.60472,-0.66512,-0.79705,0.31476,0.3714,0.7746,0.56242,0.011912,-0.25785,0.5055,-0.72306,-0.83088,0.24362,0.8223,0.78758,-0.76026,0.41698,-0.50978,0.99089,0.18714,0.11475,-0.73253,-0.46029
-0.69416,0.48337,-0.70913,-0.051455,0.039939,0.63559,0.93959,0.45413,0.47205,-0.56317,0.52098,0.23414,0.53823,0.54199,-0.52026,0.68533,-0.79439,0.42551,-0.21865,-0.11102,0.51794,0.34405,-0.27763,-0.39777,0.0070407,0.18559,-0.6031,-0.75917,-0.42979,-0.24912,0.93117,-0.66438,0.74913,-0.56682,0.45331,-0.49747,0.35605,0.91222,-0.60004,-0.99773,0.17736,-0.99489,0.013439,0.87562,-0.57982,-0.5083,0.19094,0.69135,-0.09281,-0.33006
0.035269,0.068791,0.29931,-0.74503,-0.097484,-0.15789,0.51365,-0.9358,-0.87836,0.46497,0.40698,-0.72491,-0.7804,-0.12552,-0.066924,-0.98111,0.1921,0.09271,0.72326,0.22953,0.1092,0.69751,-0.84161,-0.65591,-0.9787,0.2779,-0.45016,0.69522,-0.21255,-0.54325,0.44087,0.66928,0.5085,0.92221,0.82194,0.20473,-0.093056,0.20378,-0.3873,-0.39797,0.23985,0.89739,-0.25832,-0.74787,-0.017344,-0.43955,-0.86823,0.0030502,0.97949,0.67767
-0.12407,0.39609,-0.61248,-0.97514,0.81669,0.61,0.12459,0.076796,0.39956,0.60274,0.75583,0.3636,0.33435,0.38205,0.26719,0.78368,0.87028,-0.50452,0.96394,-0.81916,-0.81404,0.62993,-0.46209,-0.94321,-0.9768,0.61782,-0.52123,-0.87259,0.47588,-0.030233,-0.36141,0.077213,0.38589,-0.55094,0.79858,0.31661,-0.90035,0.80798,0.080323,-0.91881,0.19379,-0.36573,-0.79756,0.9365,-0.90002,-0.4307,-0.19911,0.59174,0.15236,-0.27945
0.49346,0.3538,0.80042,-0.18218,-0.90587,-0.58627,0.8388,0.065402,0.20017,0.20098,0.69221,-0.0334,0.81413,0.98339,0.98928,0.34731,0.9271,0.54592,0.97743,-0.54756,0.89616,0.49427,-0.40743,-0.50016,-0.84396,0.83556,0.56954,0.72229,0.16054,-0.031249,0.94977,0.37594,0.35903,0.1514,0.81109,-0.94046,0.59949,-0.87446,0.8201,-0.29909,-0.97002,-0.30344,-0.54608,-0.015276,0.49493,-0.90819,0.57008,-0.67926,0.63726,-0.93268
0.91973,0.53248,0.96056,-0.57431,-0.2895,-0.37765,-0.69168,-0.84999,-0.93281,-0.70209,-0.34435,0.46892,0.59384,-0.78765,0.67756,0.76096,0.31071,-0.080919,0.60685,0.73386,0.32733,0.6395,-0.38845,0.26986,-0.35415,0.79625,0.12562,-0.8854,-0.91871,-0.056116,0.094256,0.48281,0.040877,0.10291,0.41689,-0.71329,0.59456,-0.87539,-0.26831,-0.62846,-0.54128,0.12882,0.15702,-0.61553,0.040192,0.56815,0.70816,0.30458,-0.4362,-0.7149
-0.11636,0.26936,0.079095,0.57458,-0.58235,0.74521,-0.31669,0.97006,0.86388,-0.66967,-0.79763,-0.24877,-0.58522,-0.025365,-0.00077356,0.11773,0.70554,-0.48263,-0.014759,-0.20815,0.6809,0.37149,-0.77262,-0.80714,-0.61226,-0.65033,0.90836,0.96508,-0.91271,0.90726,0.076322,0.092287,-0.14511,0.303,0.95501,0.99924,0.47849,-0.25388,0.65641,-0.44477,-0.9679,-0.31008,0.0031672,0.18996,-0.18664,-0.78722,-0.30696,-0.86149,-0.73796,-0.39603
0.9388,0.078006,-0.47544,-0.98363,-0.62429,0.17347,-0.041208,-0.93667,0.94991,-0.29949,0.38599,-0.0085705,0.12753,0.62301,-0.60445,0.50542,0.057041,0.97216,-0.42653,-0.56908,0.94626,-0.84439,0.89947,0.47977,-0.32396,-0.67789,-0.25673,-0.00096736,-0.76171,0.5504,0.64319,0.14764,0.43332,0.47113,0.36552,-0.74367,0.56161,-0.24264,-0.46643,-0.71423,-0.82114,0.038194,-0.42474,0.54532,0.16645,0.67298,0.5809,0.30233,0.090781,-0.26104
0.00028601,0.22399,-0.10006,0.6918,-0.58877,0.50361,-0.45624,0.344,0.021329,0.40615,-0.83024,0.44865,0.19912,-0.85946,-0.92069,-0.60651,-0.71691,0.4443,-0.04504,0.1967,-0.65317,-0.58778,0.55468,-0.50905,-0.4146,-0.93294,-0.891,-0.11517,0.76205,-0.69466,-0.14269,-0.19336,-0.32035,-0.28454,0.042805,-0.0037963,-0.8371,0.32484,0.92262,-0.47653,0.3897,-0.32857,0.063985,0.10219,0.72967,0.54564,0.78889,0.027437,-0.88581,-0.58622
-0.57461,0.60061,-0.99017,0.64299,-0.76993,0.51002,0.74603,-0.18279,-0.71304,-0.99209,0.020701,0.97526,0.082119,0.25842,0.15239,0.91272,0.52019,-0.38573,-0.088258,0.26177,0.83983,0.56661,0.36196,0.32462,0.58613,-0.32315,0.25076,-0.1272,-0.54999,0.071878,0.98909,-0.30219,-0.7985,-0.064685,0.54033,0.17087,0.64779,0.19133,0.78911,-0.27272,0.12028,-0.66559,0.67796,-0.65927,-0.93779,0.29481,0.73329,-0.33799,-0.93389,0.87357
0.018093,0.22931,-0.22848,0.40857,-0.30349,-0.94395,-0.14258,-0.28898,-0.6739,-0.69462,-0.12524,0.66415,-0.32496,0.76981,-0.53324,-0.95708,0.40024,0.42666,0.85283,0.79859,0.67055,-0.27943,0.05423,-0.37256,0.92498,0.48481,-0.068758,-0.41678,0.78414,0.44626,-0.68255,-0.6191,0.99904,0.97634,0.56069,-0.75812,0.088418,0.16967,0.83412,0.037695,0.12867,-0.099974,-0.30131,0.59578,0.58499,0.53783,0.38085,-0.1117,-0.43517,0.92553
-0.90415,-0.88196,0.10495,0.53026,0.24554,0.28449,0.50169,-0.48592,-0.77112,0.90566,-0.43509,0.99274,-0.7015,0.66949,-0.13591,-0.82803,-0.43804,0.28284,-0.95895,0.28957,-0.42852,0.42265,0.56995,-0.50116,-0.26287,-0.92921,0.49152,-0.35512,0.56829,-0.8291,0.18599,0.56478,0.41357,-0.14753,-0.31586,-0.95237,-0.27051,-0.25149,0.4875,-0.22813,-0.99111,-0.50455,0.31181,-0.84678,-0.47219,-0.77897,-0.22703,-0.17042,0.24498,0.75724
0.48679,-0.31488,0.78335,0.53379,-0.58185,0.38578,0.77919,-0.41271,-0.094741,0.98499,0.39605,0.94454,-0.46957,-0.296,-0.84155,0.12602,-0.10067,0.66174,-0.96097,-0.018782,0.013704,0.58376,0.027735,-0.54895,0.73807,-0.30326,0.80241,0.97366,0.47199,-0.75913,0.13485,0.30517,0.03777,0.41294,-0.75293,0.89909,0.26152,0.084791,0.6502,-0.14211,0.2818,0.58555,0.50237,0.74222,0.12004,-0.49286,-0.53397,-0.81107,0.35953,0.3279
-0.98844,0.057273,-0.47703,0.64126,-0.11846,-0.53564,-0.53195,-0.45012,0.070583,-0.27766,0.13988,0.21914,0.33834,-0.67253,0.7672,-0.94376,0.68923,0.70668,-0.6124,-0.77158,0.35286,-0.16846,-0.59128,0.068964,-0.5552,0.54911,0.6796,0.99183,-0.84198,0.077635,-0.43054,-0.054767,-0.82481,-0.5408,0.12768,0.26258,-0.27216,-0.074297,-0.085634,-0.2704,0.25482,0.91626,-0.30531,0.071954,0.57588,-0.47191,0.52905,-0.33279,0.26022,-0.95928
