0.39917,0.4046,0.007881,0.46413,0.23551,0.19821,-0.51582,-0.94605,-0.91213,-0.9341,0.44944,0.99368,-0.5957,0.88347,-0.73733,-0.72702,0.44121,0.99631,-0.71844,-0.25346,0.1992,-0.72708,-0.47436,-0.69068,0.27867,0.41691,0.27151,-0.13913,-0.022275,0.89896
0.48997,-0.042877,0.85886,0.55318,0.73807,-0.44194,-0.44242,-0.85879,0.047645,0.16553,0.68134,0.46384,0.76804,0.89223,0.89347,0.47246,-0.74551,-0.2837,-0.27398,0.7182,0.37534,0.34202,0.31996,0.032638,0.17728,-0.55727,0.67901,0.82061,0.59856,0.069054
0.5256,-0.17562,-0.77377,-0.80559,-0.75571,0.030024,-0.46137,0.19052,0.13526,0.15605,-0.86941,-0.39267,-0.2547,0.79433,0.77779,-0.80039,0.24868,0.36272,-0.84209,-0.043791,-0.37883,0.84153,0.88678,-0.67098,-0.69177,-0.4408,-0.63746,-0.81831,0.55027,0.72237
-0.57168,-0.78257,0.25179,0.28491,-0.57207,-0.56402,-0.83525,0.1283,-0.94322,-0.42,0.90518,0.66083,0.25979,0.94998,0.83229,0.84416,-0.15003,-0.79007,0.62684,0.86656,-0.02729,-0.87462,-0.42926,-0.9877,-0.76047,-0.84797,-0.80631,0.82108,0.43138,0.76789
0.82354,-0.52692,0.23531,-0.82963,0.82586,0.12273,-0.36875,0.78807,0.79257,-0.26222,-0.029048,0.42545,0.86599,0.30364,-0.96016,0.56316,0.54715,0.95503,0.54952,-0.9436,-0.10289,-0.81072,0.031329,0.71593,0.1195,-0.47155,-0.64385,-0.42784,0.38005,-0.93696
-0.93518,-0.92501,0.87606,0.45182,0.35487,-0.74972,0.42175,0.95914,-0.25841,0.64174,0.58707,0.5808,-0.77663,0.6545,-0.13347,0.26142,-0.72243,0.7998,-0.76716,0.33019,-0.47962,0.045028,0.72082,0.05013,-0.24197,-0.29417,0.051878,0.90555,0.86884,0.50612
0.84584,-0.21173,0.57061,0.55782,-0.36186,-0.7743,-0.65308,-0.13309,-0.316,-0.34384,0.3633,0.38838,0.80301,-0.41215,-0.96443,-0.23762,-0.090549,0.19427,-0.69984,0.41568,0.15347,0.2724,0.7489,-0.27886,-0.49603,0.60288,0.84076,0.68481,-0.72309,-0.6248
-0.70912,-0.70447,-0.85685,0.92847,-0.54016,0.98137,-0.50413,0.13373,0.42503,-0.88483,0.65532,0.99459,-0.51023,-0.18832,0.85984,-0.46061,0.49899,0.50337,-0.80768,-0.07405,-0.053993,0.86378,-0.20128,0.96868,0.28583,-0.34318,-0.64,-0.47133,0.45756,0.74409
0.90828,0.8381,-0.20257,-0.41775,0.091299,-0.96803,-0.60142,0.4001,-0.079432,-0.71202,0.8107,-0.25763,-0.95231,0.11185,-0.66216,0.18587,0.7879,-0.41001,-0.27482,-0.51096,-0.8173,0.42291,-0.40564,0.99542,0.63534,-0.88084,0.064331,0.076273,-0.55193,0.8348
-0.6121,-0.2589,0.72226,-0.35482,-0.89325,0.99003,-0.27266,0.89043,-0.73928,0.95072,0.94444,0.28444,0.95085,0.88587,0.07689,0.78232,0.63792,-0.39896,-0.46658,0.89307,0.94324,0.80768,0.099866,0.89816,-0.89341,0.3834,0.70009,-0.89184,-0.83478,0.84273
0.11684,0.71163,-0.97382,0.24575,-0.74558,-0.46654,-0.84309,-0.11683,0.74405,-0.74775,0.52008,0.24728,-0.35701,-0.53461,0.48498,0.29182,0.97516,-0.51656,0.10375,-0.95241,0.40357,-0.63099,-0.60419,0.63283,-0.10165,0.7265,0.31729,0.36724,0.98004,-0.060772
0.69159,0.79749,-0.33455,0.77959,-0.49629,-0.29502,0.63764,0.41996,0.34793,-0.4954,0.62002,-0.9878,-0.80019,-0.79263,0.96378,0.082958,-0.30101,-0.6108,-0.93779,0.8344,0.15985,-0.18468,-0.9006,0.92247,0.48817,-0.29157,-0.83261,-0.25076,-0.26714,-0.23251
-0.0032507,-0.46108,0.59116,0.82039,0.21473,0.72631,-0.79923,0.6524,0.44252,-0.50568,-0.59348,-0.5709,-0.27317,-0.022198,0.09693,0.37961,0.27732,0.51384,0.79223,0.98882,-0.90198,-0.90824,0.23326,-0.21338,0.53148,-0.47322,-0.55734,0.77019,-0.7137,0.69078
0.81154,-0.003372,0.10451,-0.12786,-0.84745,-0.43436,-0.49603,0.57055,0.76034,-0.36813,-0.95995,-0.32981,-0.95196,-0.0041065,0.56936,-0.9242,0.48437,-0.12788,-0.8181,-0.9452,-0.42753,0.99906,0.44141,-0.98164,0.44772,0.23657,0.79723,-0.62571,-0.33917,-0.77659
-0.78399,0.48016,-0.67844,-0.97356,0.91407,0.090172,-0.66777,-0.95964,-0.22955,0.69134,0.51537,0.91315,-0.067983,-0.88992,-0.45008,-0.75027,0.25994,-0.7968,-0.21253,-0.3375,0.91733,0.40585,0.80562,-0.045963,-0.71104,0.62486,-0.31032,0.77382,-0.54086,-0.045724
-0.95665,-0.70542,-0.51219,-0.18745,-0.18117,-0.91753,0.30886,-0.89392,-0.54064,0.98865,-0.21929,0.16862,0.99662,-0.81387,-0.0073459,0.4364,0.29204,-0.98422,0.94252,0.54386,-0.53986,0.68555,-0.64991,0.44057,0.16954,0.88177,-0.079763,0.54367,-0.11541,-0.69345
0.07261,0.94711,-0.72181,-0.54258,0.59097,-0.92248,-0.049527,0.8077,-0.98419,0.68517,-0.55781,0.957,-0.54064,-0.78418,-0.65576,-0.19243,-0.49325,0.67872,0.7823,0.97107,0.52327,0.89363,-0.84394,0.35653,-0.39563,0.56686,0.95736,0.34638,0.94987,-0.31041
0.50856,0.67765,-0.99013,0.26501,0.86405,-0.35907,0.021443,0.087658,-0.99772,0.37766,0.80026,-0.55916,-0.85779,0.20918,0.32828,-0.86836,-0.4791,-0.93007,0.47251,0.064668,0.62406,0.68287,0.85975,0.2429,0.058328,-0.041594,-0.42843,0.089352,-0.66522,0.21549
-0.041995,0.84069,0.0088169,-0.79445,0.24757,-0.41291,-0.72028,0.88342,-0.39206,0.9357,-0.74461,-0.073432,0.72284,-0.38073,-0.89563,-0.84605,0.11236,-0.47955,-0.77793,0.69906,-0.88368,-0.69205,0.56341,0.76064,0.4165,-0.65725,0.10579,-0.61579,-0.25973,-0.65846
-0.30501,-0.082208,-0.50852,0.043597,-0.76938,0.57708,0.4608,0.44738,0.46508,0.55379,-0.38467,-0.55883,-0.1772,0.22016,-0.28011,-0.67657,-0.77535,-0.29448,0.55933,0.26422,-0.43434,0.51446,0.45723,-0.45134,0.94487,-0.7882,-0.85246,-0.06739,0.62905,0.61806
-0.32928,-0.47508,0.70577,0.17435,-0.72247,-0.20654,-0.5064,0.71472,-0.3031,-0.99475,0.53636,-0.82076,0.60083,0.77448,0.63048,0.40938,-0.23757,0.11233,0.35276,0.53888,-0.85956,-0.94613,0.18795,0.2343,-0.99096,0.48631,-0.64094,0.30606,0.55645,-0.78824
0.9511,0.35438,0.30823,-0.17015,-0.72611,0.55271,0.26778,0.41455,-0.20403,0.0198,-0.78759,0.73261,0.27825,-0.94943,-0.93961,-0.56115,-0.47894,-0.097631,-0.35584,-0.90709,-0.72846,0.51896,-0.0058067,-0.2137,-0.65444,0.13021,0.41874,0.11445,-0.65853,-0.30587
0.79938,-0.92928,0.22734,-0.44129,0.72738,-0.99226,0.62984,-0.72894,-0.13398,-0.36375,0.11451,0.1515,0.87745,0.35805,0.35488,0.20048,-0.33916,0.4503,-0.049927,0.55475,-0.87177,-0.68005,-0.37811,-0.4673,-0.97695,-0.3243,-0.40706,0.77773,0.11593,0.387
-0.26951,-0.41487,-0.13976,-0.34319,0.82039,-0.88058,0.2159,0.91244,-0.66151,-0.38104,0.12732,0.1456,0.34625,0.89965,0.39558,0.92599,0.30985,0.38884,-0.58101,0.37352,-0.43601,0.69413,0.86626,-0.95099,0.45229,-0.91775,0.35774,0.017783,0.056488,-0.12829
-0.12104,0.0038756,-0.92723,-0.80594,-0.34758,0.9867,0.93486,-0.093617,-0.88774,0.84023,0.7723,0.94955,-0.15085,-0.92927,0.66347,-0.91292,-0.56437,0.25047,-0.24979,0.26171,-0.16039,0.28455,-0.82212,0.40498,0.86486,0.40431,-0.051461,-0.8954,-0.74415,-0.68126
-0.69743,0.59435,-0.35976,0.50933,-0.66171,0.96883,-0.94693,0.29041,0.50848,0.63137,-0.85138,-0.38838,0.41271,-0.47868,-0.23727,0.81211,-0.50406,0.036159,-0.93549,-0.29142,0.42242,-0.35398,0.28481,-0.12771,0.93691,0.21135,-0.3526,0.36024,0.25731,-0.23258
0.072196,-0.64606,0.70448,-0.50516,-0.25321,-0.70621,0.023619,0.90726,0.65386,-0.3839,0.47072,-0.72649,0.26722,0.39044,-0.17081,-0.46822,-0.74301,-0.15965,0.41168,-0.15464,0.55448,0.56044,0.54173,-0.18999,0.98779,-0.4182,0.75686,0.92099,-0.11268,0.11283
0.72409,0.79755,-0.83156,-0.66541,-0.11814,0.65196,0.47517,-0.54522,-0.34525,-0.68951,-0.7174,-0.6569,0.48323,0.72904,0.057574,-0.038265,0.73744,0.3681,-0.79442,0.67444,-0.96911,-0.97631,0.65475,-0.011572,0.69141,-0.34594,0.79932,0.079132,0.28074,0.64007
-0.0062843,0.070061,-0.40482,0.095781,0.63938,0.62503,-0.64242,0.36919,-0.17125,-0.47017,-0.6635,-0.5823,-0.76155,-0.44488,-0.30067,0.22589,0.45007,-0.90966,0.75447,-0.20579,0.96752,-0.26972,0.0045259,-0.018987,-0.16747,-0.64085,-0.54241,0.20909,-0.2951,-0.48704
0.10692,-0.9384,0.098582,0.16375,0.93699,0.32847,-0.34529,0.59324,-0.29655,-0.70132,0.64777,0.12785,-0.82587,0.07851,-0.32185,0.05272,0.90809,0.86319,0.66157,0.27321,0.76907,0.36413,0.86581,-0.57663,0.9055,0.43622,-0.24663,0.45309,-0.35428,0.004433
0.71053,-0.26132,0.72827,0.39817,-0.47237,0.95311,-0.70943,-0.064487,-0.72533,-0.75215,-0.73412,-0.91304,0.37992,-0.38404,0.082486,0.52559,0.73349,0.69394,0.75586,-0.92973,-0.42564,-0.15634,0.73582,0.0018546,-0.40649,0.79964,0.41002,-0.68197,0.80549,0.86899
-0.27332,0.77443,-0.42432,-0.36409,-0.50404,-0.93635,0.87344,-0.89248,0.6724,0.68643,-0.28978,-0.99638,-0.26985,-0.17646,0.19104,-0.23845,0.38968,0.28711,0.77654,0.99753,-0.84702,-0.90624,0.097816,0.80973,-0.36478,-0.070897,-0.28376,-0.52904,0.49312,-0.049384
-0.22276,0.98617,0.91991,0.56822,-0.017783,0.3502,0.97932,-0.71445,-0.99553,-0.52068,0.6572,0.38656,0.7898,0.84973,-0.47428,-0.55894,0.024591,0.71638,0.09052,-0.99933,-0.96507,-0.23122,0.44998,0.030518,-0.1419,-0.88168,-0.66938,-0.20487,-0.067467,0.91755
0.061373,0.27764,-0.63344,-0.47508,-0.54177,-0.76787,0.52683,-0.23481,0.43606,0.45097,0.46359,-0.60505,0.65179,0.32905,0.98126,0.80041,0.38394,0.38177,0.87804,0.48257,0.43549,-0.39284,-0.64604,0.51522,0.85235,-0.36226,-0.0128,-0.72472,-0.04971,0.35323
-0.14322,0.6549,0.0012437,-0.44448,-0.18291,-0.22552,-0.38186,0.73879,0.74253,-0.71782,0.5801,-0.5335,0.050991,0.10067,0.76836,-0.73836,0.39948,0.36251,0.52566,0.21822,-0.93331,0.98467,-0.66085,0.91157,0.76118,-0.24943,-0.92957,0.18328,-0.14707,-0.043943
-0.0056781,-0.84207,0.10533,0.10423,0.60027,0.65269,0.095158,-0.26785,-0.24733,-0.048317,0.48604,-0.97028,0.471,0.62206,0.87595,-0.58203,-0.56699,0.12848,0.43637,-0.84824,0.90154,0.37352,0.55835,-0.506,0.16346,0.29981,0.35788,0.13141,0.44452,-0.72988
-0.16467,0.62512,-0.45509,-0.30707,0.49267,-0.17357,0.65653,-0.090726,-0.2683,-0.20207,-0.49244,-0.91454,-0.77246,0.51103,-0.78485,-0.65502,-0.9391,-0.052877,-0.61709,-0.81726,-0.85894,0.64175,-0.99945,-0.095674,0.19266,-0.062283,0.78975,-0.82628,0.95082,0.76047
-0.48476,0.82264,-0.12828,-0.78533,0.49501,0.29957,0.63281,-0.97451,-0.25465,-0.50493,0.72009,-0.21428,-0.27365,-0.52601,0.86273,-0.4004,0.18479,-0.2286,0.45521,0.23904,0.038242,0.76184,-0.01013,-0.50242,0.13995,0.13364,0.39083,-0.35703,0.99007,-0.51968
0.60682,0.19672,0.055349,0.9148,0.79008,-0.39963,0.19739,0.69161,0.90083,0.22417,-0.87138,0.85146,-0.79888,0.62881,0.33893,0.95123,-0.11498,-0.21255,0.46842,0.75581,-0.55884,0.21435,0.56558,0.1471,0.13176,-0.63075,0.92371,-0.77422,0.5932,-0.26591
-0.64599,0.18115,0.022952,0.2199,0.62219,-0.71828,0.88613,0.7981,0.23255,-0.78791,0.24123,-0.7755,-0.18651,0.4864,-0.36929,-0.70548,0.97137,-0.33738,-0.1746,0.29662,-0.15987,-0.053977,0.54725,0.10305,0.61226,0.67932,-0.3483,0.78092,-0.92311,0.20387
-0.32766,0.19316,0.10318,-0.040343,0.70351,0.87528,0.86968,-0.50446,0.67836,0.2962,-0.12713,-0.53514,-0.35285,0.55871,0.90334,-0.24201,0.54529,-0.11439,-0.20361,0.34065,0.0018969,-0.49179,0.026027,0.13127,-0.91346,0.16059,0.82142,0.0015959,-0.49852,-0.50129
0.67974,0.66455,0.097894,0.85741,-0.64704,-0.75646,0.66626,-0.51945,-0.94433,-0.069771,-0.55441,-0.74496,0.69587,0.62478,0.9149,-0.86224,-0.070372,-0.49294,0.47828,-0.21283,-0.025815,-0.19407,-0.82414,-0.35072,0.84337,-0.95933,0.93248,0.20813,-0.68037,-0.99798
0.99995,0.15459,-0.62555,-0.4037,-0.75046,0.9828,0.70056,0.75798,-0.14939,0.97407,-0.87192,-0.60429,-0.23495,-0.83444,0.61182,0.74684,-0.60068,-0.56713,0.37763,-0.98456,-0.50824,0.5057,0.4632,0.45965,0.67825,-0.019009,-0.60588,-0.41672,0.0062323,0.14122
-0.28663,-0.3428,0.38341,0.15947,0.82915,0.65535,0.75299,-0.27172,-0.38668,0.25618,0.16511,-0.88711,-0.68647,0.24723,-0.61276,0.01068,-0.55601,-0.95587,-0.8765,0.66206,0.43788,0.10263,-0.23156,0.89968,-0.68032,0.5635,-0.69088,-0.76367,0.17444,-0.91565
-0.076414,-0.16097,0.56329,0.93667,0.15477,-0.91706,-0.74852,-0.93113,-0.233,0.34681,-0.43568,-0.58017,-0.76624,0.077971,0.88143,0.19549,0.015841,-0.94524,0.47805,0.82676,0.31955,-0.39166,-0.64235,0.45447,-0.82938,-0.88496,-0.89492,0.30005,0.8975,0.23247
0.79121,-0.33539,-0.39328,0.30579,-0.62587,-0.067308,0.59241,-0.85128,0.6717,0.36354,0.78771,-0.37502,0.79537,-0.39572,-0.73718,-0.51614,0.043924,0.9919,0.2007,-0.92488,0.96868,-0.13245,0.47166,0.53891,-0.66163,-0.018351,0.38341,-0.29936,-0.037133,-0.71771
0.037835,-0.27097,-0.40599,0.84856,-0.85889,-0.30987,-0.21686,0.34181,0.47463,0.27126,-0.7679,-0.94695,0.84548,-0.34432,0.65741,0.1855,0.11543,-0.43673,-0.65817,0.59015,0.74151,-0.040424,-0.59411,0.93266,-0.75239,0.87504,0.48076,-0.69882,-0.26147,0.13028
-0.36954,0.50861,0.87193,-0.72063,-0.65268,0.1561,0.055949,-0.43478,0.7329,-0.18093,0.70902,-0.23598,0.4552,0.27503,0.049403,0.02409,0.07919,0.38775,-0.39354,-0.01324,-0.96836,0.58895,0.33916,0.26464,-0.68858,-0.34859,0.37366,-0.57259,0.77703,0.83426
-0.84662,-0.4759,0.24681,-0.64172,0.50409,-0.31324,-0.59926,-0.44891,0.45843,0.11274,0.263,0.9494,-0.17387,-0.51916,0.23182,-0.50877,-0.2592,-0.4306,-0.16702,-0.43687,-0.093015,-0.35912,0.62217,-0.36634,0.34261,0.7967,0.029539,-0.84793,0.5319,-0.38396
0.077399,0.5638,0.83071,-0.59883,-0.42165,0.062795,-0.96498,-0.57819,-0.40127,-0.98326,-0.6984,0.89461,0.25416,-0.77249,-0.49027,0.24338,0.47437,0.81358,0.31909,0.91345,-0.97128,0.78377,-0.50629,-0.89567,-0.99342,-0.33678,0.27247,0.39284,0.78196,-0.51747
0.68636,-0.44246,0.1621,-0.32323,-0.92525,-0.46329,0.045152,-0.084746,0.87224,0.79213,0.62477,-0.60763,-0.70226,-0.52709,0.54904,-0.72151,0.041798,0.61008,0.090522,0.68129,0.2105,0.29818,-0.71075,-0.95093,0.59573,-0.01017,0.50133,-0.029066,-0.54587,-0.41406
0.42541,0.35345,-0.61485,-0.73113,0.45355,0.39609,0.44083,-0.56922,-0.065114,0.92652,-0.33228,-0.36165,0.34845,0.10323,0.37864,-0.89832,0.31323,-0.86341,0.77821,-0.3581,-0.65531,-0.8008,0.45735,-0.48881,-0.30081,-0.58417,-0.85565,-0.93552,-0.61479,-0.71713
0.81488,-0.63981,0.40729,0.4736,0.53212,-0.28279,0.05589,0.15276,-0.27603,-0.59619,-0.28595,0.11538,-0.44475,-0.46077,-0.99495,-0.050203,-0.81779,-0.13095,-0.077261,-0.91962,-0.70593,0.2786,0.50319,0.91397,-0.55845,-0.90666,-0.25284,0.55709,0.55888,-0.39582
-0.9042,-0.86373,0.61731,-0.83326,0.42754,0.22777,0.68969,0.97674,0.58331,0.67286,0.77117,0.29692,-0.98603,-0.78948,0.72282,0.65287,-0.26749,-0.76799,0.86074,-0.73386,0.54624,-0.72557,-0.17666,-0.33537,0.42686,0.88101,-0.81397,-0.73732,0.69737,-0.31483
0.36864,-0.36892,-0.57462,-0.6076,-0.2884,-0.91773,0.83418,-0.98616,0.54076,0.28176,-0.52804,-0.68475,0.6765,-0.48716,0.20625,0.61949,0.76395,0.31663,-0.73834,-0.52712,0.73244,-0.51718,0.75674,0.040038,-0.06441,-0.37384,-0.83763,-0.21185,-0.50905,-0.36396
0.59655,-0.31593,0.10945,-0.37662,0.30853,-0.17039,-0.28668,0.54672,0.27866,-0.38804,0.5986,-0.54576,0.93324,-0.15649,-0.83963,0.36955,-0.033679,0.13066,0.37677,-0.58067,-0.16416,0.16325,-0.16202,0.055932,0.42047,-0.36221,-0.56442,-0.3179,0.9062,0.60365
-0.64701,-0.2839,-0.17851,0.56212,-0.24888,-0.89265,-0.42501,0.30187,-0.7149,0.11967,0.45648,0.74305,0.417,0.23257,-0.11879,-0.24196,-0.051904,0.6414,-0.92258,-0.19461,-0.69503,0.23595,0.77643,0.10922,0.82594,0.65346,-0.644,-0.15391,-0.82764,-0.084428
-0.75625,0.12941,0.051835,0.16341,0.36369,0.20841,-0.057705,-0.55528,-0.094388,0.18088,0.067047,0.97982,-0.80701,0.043176,0.88204,-0.60422,-0.69597,0.45251,0.17996,0.87697,-0.078985,-0.22053,-0.61795,-0.86899,0.73891,-0.21606,0.026109,0.99059,0.15005,0.42768
-0.10816,-0.37738,0.21962,0.054743,-0.28633,0.16547,0.74578,0.97943,0.14745,-0.85067,0.51867,-0.45425,0.86049,0.15445,-0.01152,0.65591,0.34533,-0.09808,0.70353,0.34902,-0.079508,-0.7649,-0.19944,0.11728,0.15046,0.26376,0.61009,0.54963,-0.39221,-0.063544
-0.69296,0.71308,0.067023,0.77689,0.75645,0.37255,0.2026,-0.55697,0.57158,0.79685,-0.60404,-0.90085,0.89517,-0.82322,-0.47326,0.95025,0.61111,0.42566,-0.5462,-0.13816,0.91351,-0.25363,0.66953,0.446,-0.73247,-0.43628,0.37118,0.94437,0.48994,0.53305
0.57998,-0.80858,0.17522,-0.22925,0.068907,-0.65703,-0.34201,-0.42055,0.91364,-0.84917,0.025344,0.76341,-0.71368,0.44612,0.98771,-0.27715,0.19451,0.084387,0.70946,0.42417,-0.16925,0.20248,-0.76804,-0.25663,0.81928,0.0013963,-0.45187,0.14993,0.62491,0.067988
-0.1853,0.82325,-0.18764,-0.26902,0.11702,0.63531,-0.51432,-0.9359,0.88115,0.55069,-0.82705,0.16421,0.42973,-0.71615,-0.78771,0.69889,-0.17101,-0.42124,-0.027783,0.57063,-0.3152,0.14327,0.29609,0.92548,0.47845,-0.32577,-0.87594,0.45728,-0.24283,0.22724
0.37105,0.84085,0.9795,-0.28544,0.39928,0.018378,0.80669,-0.33174,-0.39124,-0.4223,-0.48838,-0.11607,0.52191,-0.73409,-0.3971,0.47389,0.29637,0.62471,-0.51026,-0.79929,-0.92649,-0.03875,0.80191,-0.29472,0.59433,-0.95449,0.5984,-0.87963,0.69187,-0.60331
0.23357,-0.75501,0.29681,-0.064197,-0.19489,0.70171,0.086545,-0.67525,0.22182,0.89833,-0.18282,-0.24274,0.42423,-0.40383,-0.68402,-0.090395,0.4292,0.46517,0.41814,-0.50951,0.40388,0.46898,0.97755,-0.95047,-0.69655,0.1181,-0.037391,-0.89168,0.65064,0.94102
-0.867,-0.57923,-0.29494,0.39287,-0.39541,-0.3975,-0.48852,-0.94513,0.78744,0.45497,0.24094,0.82398,-0.29142,-0.92504,0.76738,0.80628,0.5343,-0.89965,0.13171,-0.063528,0.93948,-0.33927,0.76939,-0.93746,-0.4142,-0.34686,-0.1246,-0.93451,-0.18973,0.64528
-0.841,-0.011219,-0.081393,-0.41432,0.96977,0.30513,0.95742,-0.7218,-0.85394,0.61675,-0.24827,-0.46583,-0.18067,-0.30703,0.44058,-0.86644,0.77562,-0.92958,0.0091313,0.75035,-0.77646,0.044121,-0.5304,-0.27447,-0.87125,-0.8687,0.68117,-0.76779,0.48042,0.84171
-0.96493,0.46631,0.14066,0.67742,-0.33502,0.11574,0.61628,-0.097391,-0.26463,0.84586,-0.43875,0.95016,-0.21654,0.91532,-0.027496,-0.44958,-0.70266,-0.6245,-0.29984,-0.97906,-0.28033,0.83714,-0.26632,0.48051,0.15425,0.52979,0.26983,0.97965,0.62858,-0.89876
0.10238,-0.69245,0.52003,-0.054068,-0.23473,0.52447,0.88489,0.78926,-0.72577,0.25929,-0.69976,0.010281,0.31848,-0.36489,-0.69402,-0.025801,0.60982,-0.83894,0.91283,0.46646,-0.5788,0.25727,-0.25408,-0.7884,-0.89674,0.6503,-0.21317,0.77932,0.87371,-0.27721
0.021256,0.51141,-0.46537,0.069763,0.25519,-0.69969,0.22813,0.74176,-0.3408,-0.72904,-0.98374,0.88686,-0.2103,0.86121,-0.27785,-0.4162,-0.48871,-0.49381,0.31134,0.62722,0.76684,0.69171,-0.89094,0.45421,0.47002,-0.99434,-0.23037,0.71868,-0.97712,-0.46989
0.65451,-0.4784,0.77352,-0.6743,-0.063287,-0.914,-0.35862,-0.92081,-0.032673,0.81257,-0.69349,0.90902,0.085494,-0.97592,0.5002,-0.79373,-0.38391,-0.43838,0.39945,0.49133,-0.17774,0.23047,-0.37472,0.76116,-0.67148,-0.19643,0.034729,0.88873,-0.18296,0.34229
0.94952,-0.38971,0.15563,0.54587,-0.74646,0.54859,-0.885,0.13941,0.66439,0.91031,-0.12735,-0.2055,0.88686,-0.46333,-0.55094,0.13156,0.89941,0.37179,-0.37803,0.88523,0.1007,0.085093,0.11913,-0.87018,0.86732,0.29792,-0.2866,-0.66477,0.43523,-0.081909
0.83409,-0.99718,0.28825,-0.08715,-0.2831,0.34,-0.091304,0.23254,0.99915,0.71332,0.67618,0.2832,-0.015607,-0.4257,-0.106,0.35915,-0.15856,-0.87009,0.55702,-0.22711,0.039104,-0.75766,-0.51011,0.40908,-0.11931,0.45356,0.76203,0.71901,0.62959,0.79233
0.40581,-0.98771,0.10825,-0.48175,-0.30015,0.48091,0.08231,0.66522,-0.68907,0.89418,-0.49258,-0.88406,-0.52143,0.47716,0.56375,-0.48279,-0.20554,0.33502,0.48533,-0.24777,0.77746,0.033384,0.53553,0.03122,-0.173,-0.79681,-0.46838,-0.6098,-0.77444,0.47973
-0.62203,-0.087226,0.38162,-0.97627,-0.72346,-0.56751,0.89873,0.16932,-0.27844,-0.93779,0.45623,0.9188,0.52709,0.74725,-0.37441,-0.087708,0.94145,-0.33777,-0.14394,0.76416,-0.40089,0.87821,-0.23543,0.4332,-0.81433,0.088439,-0.51125,0.93267,0.39657,-0.76924
0.44114,0.32983,0.53049,0.85263,0.28692,-0.015606,0.077207,-0.22405,0.5887,0.53405,0.1554,0.2883,0.028234,-0.1078,-0.1726,0.77271,0.49579,-0.27501,0.24058,0.36835,-0.93218,-0.68986,0.87389,0.062379,-0.98377,0.17652,-0.43099,-0.065815,0.014269,-0.68805
-0.78149,-0.50211,0.046845,-0.58781,0.54402,-0.40446,-0.54149,0.012612,-0.3668,-0.2134,-0.46532,0.18423,0.87591,-0.32505,-0.63134,-0.77631,-0.83335,0.62493,0.47518,-0.64922,0.6468,0.48677,0.27321,-0.65971,-0.32204,0.53911,0.69179,0.50972,-0.69456,0.53363
0.1167,0.43499,0.89763,-0.071104,0.38519,-0.23639,0.89125,0.89904,0.50516,-0.44775,0.4731,-0.46057,-0.88041,0.91278,0.039166,-0.056418,0.20973,-0.71717,-0.048496,-0.032585,-0.88813,-0.33578,-0.19433,-0.35344,-0.62846,-0.39245,0.13991,-0.21629,0.76003,-0.23479
0.94829,0.82555,0.55018,-0.16823,0.80239,0.77093,0.39008,0.7114,-0.80296,0.024736,0.6728,0.35148,0.50858,0.22508,0.73452,-0.67512,0.060919,-0.87255,0.80823,-0.27137,0.44977,0.17359,-0.023629,0.95475,-0.77989,0.65872,0.54901,0.80186,-0.2485,0.21983
0.44999,-0.49528,0.72811,0.30737,-0.14992,-0.45024,-0.49121,-0.36437,0.25849,-0.56548,0.6578,0.27365,0.2249,-0.8374,-0.60603,0.79958,0.19357,0.39476,-0.64158,-0.20311,0.85252,0.95991,0.89824,-0.00033558,0.99254,-0.014387,-0.80205,-0.52882,0.70633,0.77762
0.002592,0.30516,0.93453,-0.064278,-0.32904,-0.28531,-0.077778,-0.73871,-0.2796,-0.77895,-0.096034,0.75438,0.15389,-0.87231,-0.01742,-0.8752,-0.038296,-0.8581,-0.66791,-0.86701,-0.2248,-0.74672,0.8939,-0.50248,0.17811,0.6674,0.29175,0.76186,0.66448,0.93399
0.049554,0.46817,0.35354,-0.29609,-0.44154,0.35496,-0.5394,0.90054,0.18782,-0.49076,-0.58834,0.39518,0.077222,-0.94816,0.74995,0.2931,0.67874,-0.2709,-0.84706,-0.56528,0.57189,-0.85592,0.92471,0.93471,-0.56369,0.87038,-0.3987,0.15873,-0.82317,0.57253
-0.69038,-0.77922,-0.42671,0.59398,-0.93605,0.96075,-0.14261,-0.35361,0.77128,-0.14223,0.27144,0.15054,-0.43758,0.18868,0.55576,-0.19525,0.40434,0.97483,-0.40659,0.6189,-0.7308,-0.71514,0.93615,-0.20249,-0.83544,-0.89325,0.27014,-0.6964,0.40277,0.12254
0.12874,0.6338,0.95146,-0.026788,0.58406,-0.92165,-0.21391,-0.21,0.62706,0.11165,0.32837,-0.21956,-0.15406,0.2488,0.71685,0.31522,-0.099253,0.12198,-0.31878,-0.20792,0.067612,0.9757,0.62561,-0.52213,0.25341,-0.87449,-0.95024,-0.73981,0.42907,-0.29208
0.018738,-0.32339,-0.71042,-0.46394,0.54786,-0.63426,0.47417,0.84155,0.48951,-0.23266,-0.6821,-0.31597,0.68097,0.75484,0.058267,0.12649,-0.040264,0.60379,0.78926,-0.075525,-0.55625,-0.65043,-0.56921,0.63734,0.27453,-0.53937,-0.034174,-0.57572,-0.37495,-0.45478
-0.42701,0.064924,0.99475,0.11499,-0.89786,-0.46236,-0.22836,-0.47229,0.0078316,0.51528,-0.98208,0.18227,0.94931,0.60106,-0.39388,-0.73154,0.83516,0.68843,-0.59815,0.30317,0.86446,-0.33616,-0.14501,-0.6836,0.084556,-0.1246,0.9344,0.66985,0.55465,0.84825
-0.50026,0.85289,0.55509,-0.71047,-0.62427,-0.22814,-0.99497,0.97571,-0.34693,0.48926,0.79955,-0.41028,-0.35822,0.88154,-0.1008,0.82624,-0.87718,0.32735,-0.11996,-0.098252,-0.76365,-0.87339,-0.73609,-0.45269,0.11151,-0.8737,0.29407,0.1203,-0.40181,-0.076396
0.070373,-0.71453,-0.67294,-0.88871,-0.070002,0.41005,0.95652,-0.7942,-0.82421,-0.34945,-0.022322,-0.95417,-0.10936,0.06416,0.82872,0.042629,0.47749,0.47678,-0.18383,0.15907,0.67919,0.21051,0.41479,-0.92243,-0.92976,0.54791,-0.38135,-0.014031,0.050104,0.52171
0.1218,0.6991,0.89632,0.36651,0.38907,-0.48806,-0.82882,0.27732,0.4635,-0.78364,-0.65619,-0.5369,-0.12879,-0.53713,0.27437,0.17532,-0.75307,-0.86787,0.051671,0.1711,0.69645,0.15533,0.51522,0.21003,-0.18951,0.14352,-0.7908,-0.83125,-0.31847,0.68845
-0.74291,0.55028,0.0075807,-0.30467,-0.99155,-0.40522,0.9821,-0.30853,0.72453,-0.13047,0.90059,-0.79649,0.86546,0.91417,-0.46055,0.88752,0.030204,0.65718,0.26405,0.82819,0.74057,-0.31222,0.1522,-0.15057,0.57098,-0.85488,-0.53107,-0.99108,0.72499,0.15988
-0.21775,-0.93916,-0.77197,0.39763,-0.45989,0.38733,0.97303,-0.55369,0.06803,0.64154,-0.15123,-0.16126,0.8067,-0.063975,0.49482,-0.83043,-0.76476,0.58377,0.045032,0.55548,0.15228,-0.13178,-0.50371,-0.17539,0.37179,-0.98695,-0.95939,-0.51927,0.44212,0.5637
0.89715,0.37281,0.18862,-0.96864,-0.33202,-0.97168,-0.62802,-0.87467,0.37479,-0.092608,0.64526,-0.72487,0.70983,0.096962,-0.42647,0.41774,0.69943,-0.14913,0.055517,0.94121,-0.0053503,-0.96217,-0.63299,0.18689,-0.52567,0.10419,-0.37114,-0.24769,-0.99505,0.59573
0.86449,-0.026199,0.91387,0.41123,0.27259,-0.62119,0.68282,-0.53495,0.60268,0.63719,-0.15342,0.31529,0.15352,0.75739,0.5621,0.026428,-0.51446,0.37922,0.68695,-0.50565,0.49339,0.56372,0.0625,0.64946,-0.47801,0.69812,-0.95018,0.63846,0.4122,0.67211
0.20371,-0.50471,0.15895,-0.54029,0.088032,0.33019,0.0075368,0.67976,-0.91947,-0.92144,-0.23786,-0.83778,-0.88861,0.065205,0.094185,0.27661,0.24524,0.37541,0.684,0.66755,-0.41817,0.11768,-0.95835,0.34687,0.9575,0.92714,0.079853,0.14621,-0.052619,-0.12389
-0.12226,0.94453,0.02084,0.82488,0.9721,0.5903,0.88638,-0.82452,0.71187,-0.051961,-0.15578,-0.54088,-0.33354,-0.19536,0.88692,0.9473,0.891,0.37775,-0.45879,0.65172,-0.33859,0.66985,-0.99768,-0.044876,0.77114,-0.11808,0.86513,-0.40254,0.26392,0.83702
0.29016,-0.20356,0.95798,0.86511,0.6858,0.56179,-0.011604,-0.30048,0.20871,0.59028,0.73486,-0.81245,-0.52963,0.030103,-0.39192,0.85239,-0.6392,0.36756,-0.020272,0.49698,-0.86317,0.47024,0.68414,-0.46469,0.27293,-0.71306,-0.072514,-0.90173,-0.069024,-0.18174
0.047327,0.71597,-0.73213,-0.57728,-0.68268,0.50636,0.56483,0.24146,0.082758,-0.57921,0.28821,-0.39101,0.69961,0.19851,-0.066029,-0.68954,0.60531,-0.66952,0.39994,-0.91053,0.22075,-0.4009,0.74678,-0.47345,-0.94992,-0.9524,0.32208,-0.6382,-0.6312,0.37287
0.1257,0.67299,0.94245,-0.5126,-0.03519,-0.47826,0.13185,0.39544,0.32443,-0.10881,-0.96821,-0.79035,0.63444,0.6392,0.24952,0.76781,-0.582,-0.3949,-0.18772,-0.27052,-0.67987,-0.1946,0.47812,0.34423,-0.73524,0.27617,0.60129,0.59657,0.90594,0.68845
-0.70262,0.41338,-0.0039794,0.26604,-0.6169,0.43615,0.23452,0.88632,-0.1889,-0.29287,0.0037948,0.21822,0.98764,0.36199,0.062063,-0.12892,-0.23229,-0.70322,0.12294,0.74658,0.57001,-0.069892,-0.053994,-0.23365,0.72995,0.83539,-0.62209,-0.52471,0.98662,0.31186
-0.87714,0.67191,-0.56083,0.85477,-0.056356,-0.16842,0.09487,0.80899,0.47622,0.59407,0.87633,-0.98624,0.56984,0.94041,0.6399,-0.96933,0.6771,-0.72991,0.38014,-0.31234,0.42542,-0.7322,-0.43743,-0.62894,0.95146,0.90065,-0.43795,0.28955,-0.94653,0.56886
0.81067,0.3956,0.94321,0.90928,-0.52184,-0.46347,-0.58866,-0.3635,-0.47784,0.0042786,0.07515,-0.078632,-0.44018,0.77874,-0.87371,0.46847,-0.6135,-0.10368,0.10722,0.27816,-0.042914,-0.94035,0.37652,0.87126,-0.94496,-0.91142,-0.24292,0.66651,-0.82763,-0.55984
0.52289,-0.075003,-0.0967,0.93957,0.30662,-0.057499,0.20622,0.52634,-0.68076,-0.68935,-0.021357,-0.73284,0.25759,-0.39105,0.30267,-0.0076015,-0.35641,0.48687,0.026173,-0.29283,0.29422,-0.23645,0.083189,0.33577,0.94328,0.68562,-0.18292,-0.30924,0.54459,-0.22176
-0.23242,0.85711,0.63349,-0.62829,0.65228,-0.99943,-0.82504,0.19561,0.40679,-0.96544,0.58476,-0.66374,-0.53967,0.59348,0.12999,-0.14258,0.69673,-0.82266,0.31912,0.74154,-0.29997,0.20974,0.43706,0.84768,-0.82293,-0.28981,-0.61345,0.16156,0.43895,0.46188
-0.47376,-0.55663,-0.26396,-0.59416,-0.45421,-0.16262,0.84889,0.82311,-0.63959,0.29114,0.38206,-0.77412,-0.42654,-0.47016,0.89874,-0.5197,-0.52625,-0.61074,0.35219,-0.71843,-0.76416,0.13496,-0.84931,-0.87944,-0.11627,0.85268,-0.3031,-0.66741,0.22254,-0.578
0.53874,0.20149,0.72804,0.63775,0.068464,0.063166,0.5031,0.63818,0.20102,-0.4862,-0.62991,0.53613,0.37429,0.58277,0.5458,0.76393,-0.94718,0.88721,0.28707,0.66836,-0.50039,-0.50058,-0.2378,0.09944,-0.28045,0.53665,0.16848,0.78871,0.44305,0.17577
0.074377,-0.97684,0.74164,0.012422,-0.26269,0.89387,0.73639,0.13877,-0.31775,0.93671,0.52674,-0.98682,-0.46511,0.64068,0.7909,-0.50606,0.44248,0.29284,-0.49843,0.54696,0.16627,0.48359,0.27676,0.38468,-0.1252,0.067318,0.45644,0.79267,0.20632,0.47642
0.86046,0.2338,-0.30803,0.96341,-0.02535,0.025143,0.80615,-0.77405,0.023533,-0.33775,0.35003,-0.25242,0.17199,-0.48539,0.49601,-0.33842,0.50675,0.5567,0.50829,-0.21678,0.044457,-0.51065,0.8491,0.0030588,0.2048,0.8648,0.83175,0.25265,-0.17007,0.19013
0.31563,-0.71955,0.85343,0.81983,0.61993,0.13585,-0.7147,-0.92068,0.98315,-0.51037,0.32039,-0.98681,0.91696,0.95563,0.80346,-0.24283,-0.92841,-0.4966,0.77928,0.56959,0.63954,0.40762,0.73518,-0.28804,-0.65219,-0.0080577,0.56286,-0.28293,-0.29814,-0.2028
0.50101,0.35477,-0.18381,0.4405,0.060536,-0.86481,0.066501,-0.51419,0.64948,-0.83693,0.46462,-0.0017049,-0.44221,-0.21818,0.59785,-0.25053,0.95202,0.5515,0.29236,0.91032,0.44579,0.27259,-0.98964,0.0038028,-0.61811,0.81239,0.89672,-0.11448,-0.34207,0.3602
-0.89319,0.46712,-0.79243,-0.27514,0.56384,-0.85866,-0.6818,-0.67719,-0.69396,0.73066,0.078535,0.7281,-0.99275,0.098606,-0.16039,-0.053691,0.98256,0.55702,-0.082772,-0.27576,-0.5017,-0.18645,-0.052466,-0.40046,0.97,0.46984,-0.10232,-0.92197,-0.60746,-0.96133
-0.90597,0.52505,0.68164,-0.75337,0.40127,0.96421,-0.41729,0.44835,0.96766,0.63614,-0.45129,-0.85809,-0.28855,-0.076868,-0.16683,0.1886,0.13497,0.15938,0.69407,-0.9503,-0.75154,0.89073,-0.39104,-0.91527,0.26971,-0.23962,0.84839,-0.92563,-0.12345,0.20693
0.61209,0.95587,0.35315,-0.049853,0.70583,-0.47617,0.20665,0.52673,0.79237,0.74017,-0.75278,-0.51961,-0.94556,-0.88525,0.28095,0.24444,0.0023605,-0.81138,-0.74517,-0.50281,0.76356,-0.19856,0.17509,0.2606,0.13449,-0.078387,-0.14101,-0.22275,-0.404,0.42043
-0.364,-0.24719,0.98067,0.19078,-0.86682,-0.21101,0.060753,-0.94484,0.7325,0.29459,-0.71062,-0.61384,0.50422,0.16986,0.69937,0.14891,-0.13123,-0.58,0.21075,-0.18654,0.023147,0.67922,-0.26034,0.81729,0.83593,0.91363,-0.38842,0.94451,0.74696,-0.39755
-0.17578,0.63098,-0.42626,0.73599,-0.37247,0.93051,0.9696,-0.43875,0.62317,0.6649,-0.85088,0.99716,0.065453,-0.36346,0.48083,0.86751,-0.051309,-0.32381,0.80509,-0.96039,0.81263,0.76698,-0.21853,0.43378,0.51551,-0.34926,0.55387,0.35599,-0.028513,-0.45916
-0.88491,-0.58402,-0.44522,0.097671,0.46188,0.9602,-0.8591,0.60471,-0.82703,0.40848,0.68979,0.92184,0.95414,-0.77135,0.99219,0.084573,-0.24033,-0.20871,-0.16764,-0.25318,0.96923,-0.64639,-0.74603,-0.67364,0.25043,-0.72294,-0.65201,-0.71946,-0.2053,0.058885
-0.92813,0.58798,-0.40921,-0.10761,0.9397,0.36706,-0.39355,0.26586,-0.98075,0.39435,-0.42557,0.96087,0.2375,-0.99938,-0.74573,0.72411,-0.38227,-0.22086,-0.96263,0.13353,-0.47855,-0.10637,-0.17206,0.62932,0.83391,0.14698,-0.42942,-0.35566,0.97256,0.71132
0.60107,-0.86432,0.30105,0.69562,0.90908,0.54885,0.53143,-0.6881,-0.19781,0.252,0.65739,-0.21588,0.63674,-0.33955,0.14575,0.58182,0.76277,-0.56945,0.14882,0.67465,-0.44826,-0.86226,0.90014,0.8024,0.75194,-0.67418,-0.89102,-0.97351,-0.39739,0.17634
-0.52296,-0.29734,-0.13547,-0.55181,0.34226,-0.74701,-0.99688,0.48126,0.74419,0.8524,-0.037252,-0.5094,-0.80669,0.36754,0.18628,0.55346,0.73494,0.30919,0.21254,0.68406,0.20731,0.19834,-0.19894,-0.11332,0.78605,-0.43753,-0.40186,0.80639,0.68627,-0.48938
0.20875,0.13269,-0.82447,-0.26212,-0.97219,-0.45612,0.91518,0.30793,-0.38425,0.36609,-0.90455,0.64092,-0.66487,0.99686,-0.33449,-0.31466,-0.37593,0.891,-0.81864,-0.25068,0.2475,0.12995,-0.73014,0.87791,-0.86827,-0.21048,0.68169,0.72207,0.60606,-0.50118
-0.52323,0.056638,-0.69089,0.015595,-0.83372,-0.91004,0.35784,0.18639,0.52086,-0.99545,0.50246,0.76402,-0.47352,0.02526,0.99854,0.0075889,0.42364,-0.39765,0.039751,0.54904,-0.45629,0.80681,0.91553,-0.13322,0.84807,0.74082,0.31501,0.60863,0.45193,0.37982
0.81678,-0.86344,0.21025,-0.28463,0.14639,-0.70074,-0.035,-0.53994,0.13469,0.46128,0.19496,0.37988,-0.50507,-0.9808,-0.51977,-0.57645,-0.43839,-0.66173,-0.042413,-0.55865,-0.18006,-0.92097,-0.63759,-0.19545,0.13244,0.75199,0.98853,-0.78395,-0.78764,-0.7375
-0.37547,0.886,0.91673,-0.051541,0.068172,0.20899,0.11773,-0.52726,-0.08742,0.27817,0.37338,0.71257,-0.41106,-0.73357,0.20616,-0.97676,0.97974,0.23387,0.11925,-0.63519,-0.10724,-0.71013,0.68077,-0.021493,0.2211,0.48935,-0.29437,0.22763,0.36666,0.3102
-0.47169,0.96759,0.21323,0.3226,0.87892,-0.59484,0.75378,0.55338,-0.86843,0.44438,-0.071915,-0.86721,0.26673,-0.58792,-0.59941,-0.14654,0.85466,0.20792,-0.2946,0.84547,-0.14179,-0.70698,-0.22599,0.5892,-0.63847,-0.27494,0.48615,-0.23424,0.65461,-0.89617
0.19756,0.14827,0.31941,0.23218,0.95349,0.46583,0.63336,-0.36038,0.55417,0.56759,0.10881,-0.48093,0.19423,-0.048361,-0.93339,-0.38231,0.23351,0.44939,0.43537,-0.12443,-0.95885,0.11281,0.96914,-0.2297,-0.013529,-0.68061,0.5323,-0.98439,-0.83964,-0.099991
-0.57963,0.63769,0.97147,-0.7773,0.28244,-0.45846,-0.90438,0.85691,-0.60144,0.63258,0.30814,0.95956,0.51115,0.93554,-0.49771,0.87527,0.85238,-0.81009,-0.17019,0.24624,0.26173,0.70033,-0.053101,0.56899,0.3922,-0.87676,-0.63934,0.94193,0.78458,0.15319
-0.17145,-0.43336,0.063342,-0.15137,0.76948,0.27492,0.82242,0.031337,-0.42108,-0.038731,-0.60347,-0.80514,0.39443,0.27668,-0.87711,0.91486,-0.31498,-0.84776,0.5956,0.84565,0.76692,-0.78752,-0.86194,-0.8036,0.6703,-0.12621,-0.26808,-0.20031,0.90357,0.85248
-0.45441,-0.93519,-0.31242,0.21656,-0.49131,-0.52045,0.13568,0.76471,-0.52751,0.39197,0.402,0.24978,-0.98876,0.25489,-0.45793,-0.26152,0.5839,0.56431,-0.0020819,-0.35228,-0.90815,-0.30072,0.22905,0.5257,0.19609,0.49204,0.50239,-0.81322,0.79545,-0.10214
-0.20645,0.97213,0.93557,0.77583,0.25246,-0.6785,0.84175,-0.28742,-0.86515,0.95932,0.70464,-0.23381,-0.88563,0.29001,0.71128,0.27056,-0.45844,0.54581,0.51854,0.11642,0.016904,-0.097373,-0.94617,-0.60484,0.96058,0.11194,0.29713,0.49816,-0.036606,-0.36441
-0.79826,-0.50978,-0.50534,0.1843,-0.55765,0.46488,-0.54488,-0.51887,0.86874,-0.46588,0.95368,-0.76223,-0.99424,0.6105,0.86906,-0.62147,-0.96396,0.90685,-0.51412,0.81773,0.57871,-0.43397,-0.87183,0.96909,0.9832,0.90688,0.64507,-0.79945,-0.69106,0.97791
0.18085,-0.78139,-0.10802,-0.30776,-0.6156,-0.41551,-0.57233,-0.051252,-0.46385,0.83651,0.072248,0.1476,0.087196,-0.57012,0.96935,0.7051,0.32566,-0.010714,-0.15308,0.85289,0.68495,0.83531,0.14136,-0.75129,-0.19463,0.70429,0.96905,-0.24482,-0.0674,0.026301
0.98393,0.34795,0.22268,0.40344,0.021854,-0.036975,0.23169,-0.27478,0.34022,0.82316,-0.43824,-0.13636,0.42953,-0.39782,0.36806,-0.27973,0.035743,-0.015838,-0.35096,-0.25211,0.61087,-0.71763,-0.6715,0.84238,-0.62413,0.062242,-0.50777,0.38761,-0.14162,-0.94912
-0.68573,0.99974,-0.060074,0.0058755,0.35107,-0.052258,-0.4506,-0.42828,-0.93465,0.35319,0.40753,0.31282,0.91812,-0.63783,0.16808,0.77068,-0.523,0.49868,-0.6193,0.84592,-0.051598,0.78503,-0.78966,0.18927,-0.92301,-0.7867,-0.61887,0.070483,-0.07885,0.061012
-0.54271,-0.22642,0.86112,-0.15966,0.58462,-0.41454,-0.1424,-0.47219,0.89141,-0.6594,-0.52513,0.58886,0.73163,0.71203,-0.27828,-0.96442,-0.14226,-0.35119,-0.082965,0.20998,-0.93829,-0.40436,0.92097,-0.048157,-0.96187,-0.041289,-0.70957,0.97817,-0.9112,-0.33788
0.46786,-0.79567,0.45333,-0.48369,0.74035,-0.85013,0.66196,-0.64991,-0.88194,-0.27983,0.65269,-0.62281,-0.47518,-0.78517,-0.66057,-0.83692,0.58322,0.66493,0.72537,0.61486,-0.72193,-0.29718,0.57312,0.84561,-0.55233,-0.5912,-0.85234,0.089987,-0.19731,0.26221
0.27337,0.6404,0.75614,0.7928,-0.099262,-0.4345,-0.21242,0.15402,-0.65236,0.16462,-0.41128,-0.45782,-0.024016,-0.11186,-0.034357,0.022214,-0.9901,0.70317,-0.35426,-0.53003,-0.88841,-0.94924,-0.72733,0.39988,0.75286,0.85151,0.50785,-0.0071669,0.76347,0.057904
-0.26811,0.3378,0.6645,0.48931,-0.64203,0.81505,0.39426,0.98136,0.30098,0.89939,-0.18728,0.13123,-0.18292,-0.47061,-0.98122,0.71438,0.67073,-0.69586,-0.70466,0.19464,-0.70262,0.70612,0.92413,-0.6276,-0.22344,-0.53726,0.84267,-0.55101,-0.27371,0.47035
0.99741,0.44074,0.82824,0.7408,0.27897,-0.42764,-0.73273,0.66085,-0.23305,0.7195,-0.60806,0.4389,0.82458,-0.1643,0.47824,-0.44507,-0.62782,0.97767,0.23406,0.34887,-0.93203,0.50055,0.16097,-0.43895,-0.79556,0.15731,0.22229,0.66231,-0.73152,-0.67527
0.071358,-0.19761,0.42864,0.36521,-0.94919,0.61244,-0.968,-0.42583,0.99034,0.020926,-0.91059,0.8564,-0.62344,-0.21791,0.14486,0.08451,0.42618,0.93043,0.72763,0.3455,0.76608,-0.03843,-0.71338,-0.72235,-0.40953,0.77905,0.83133,-0.93236,0.42335,0.49684
0.41567,0.31464,0.86817,0.12441,-0.21375,0.54152,0.84249,-0.53211,-0.49185,-0.95245,-0.82333,-0.32069,-0.18726,0.61525,0.47969,-0.50754,0.9137,-0.23302,0.045655,0.28416,0.98452,-0.61167,-0.14782,0.13829,0.99812,-0.65554,0.9355,-0.24411,0.51184,0.29619
-0.66304,-0.063718,0.52376,0.13364,0.36381,0.86572,0.90385,-0.076189,0.36867,0.82098,-0.74017,-0.46828,-0.4896,-0.63988,0.54892,0.8313,0.45518,-0.51576,0.64427,0.22625,-0.66557,0.61217,-0.94829,-0.5864,0.24956,0.51466,0.50186,0.070205,-0.49019,-0.83564
0.57994,0.58975,-0.55587,0.21504,-0.88451,-0.91162,-0.29988,0.011114,0.60086,0.0943,0.77334,0.20308,0.52093,-0.054269,-0.49899,-0.71195,-0.0078385,0.48244,-0.083618,-0.8431,-0.23148,0.24841,-0.77016,-0.34385,-0.89788,-0.25896,0.15239,0.19831,-0.35238,-0.55156
0.73681,0.23599,-0.010264,-0.50009,0.75117,-0.46251,0.57125,0.41461,-0.79446,-0.25372,0.792,0.4057,-0.77508,-0.18068,-0.79656,0.96063,0.99697,-0.70405,-0.24544,0.041093,-0.4758,-0.66138,0.15467,0.90321,-0.077769,-0.54989,0.38618,-0.5858,0.23608,-0.64452
-0.65097,-0.30205,-0.87034,-0.95035,-0.70328,-0.29483,0.62807,-0.5246,-0.81814,0.28654,-0.31955,0.2131,0.33953,-0.23829,-0.12869,-0.30967,-0.75015,-0.093797,0.29258,-0.52824,0.78965,0.66531,-0.83863,0.13453,-0.55582,-0.2824,-0.33077,-0.7483,-0.37696,0.73834
-0.7579,-0.10322,0.33717,-0.30861,0.70658,0.71996,-0.22813,0.77774,0.86716,-0.15494,-0.45883,0.90806,-0.50072,0.77724,0.81537,0.79162,-0.34821,0.9741,-0.31314,-0.95663,0.42297,-0.96123,-0.26625,0.087546,0.4256,0.54914,-0.4727,-0.33133,0.35988,-0.88577
-0.68258,-0.45152,0.29266,0.008004,0.84861,-0.97271,-0.9242,0.27514,0.4195,-0.16662,0.70979,0.37985,0.33974,-0.62491,0.55158,-0.92375,0.9462,-0.20844,-0.4387,0.88228,-0.22672,-0.04907,0.76954,-0.66352,0.62583,-0.35661,0.7842,0.20068,-0.60952,-0.42964
0.3593,-0.39162,0.59816,0.59948,-0.48946,-0.041224,0.072295,-0.8394,0.10778,0.75662,0.14,-0.82336,-0.2273,-0.22207,-0.30479,0.47002,0.79129,0.47314,-0.75854,-0.77849,-0.59643,0.67995,-0.12604,0.14717,-0.092038,-0.016601,-0.44678,0.23359,-0.23004,-0.64778
-0.45277,-0.34979,-0.5819,-0.77496,-0.85187,0.20381,-0.040985,-0.42922,-0.64061,-0.56807,-0.79292,-0.0048141,0.49902,0.06957,-0.03557,0.77238,0.54225,-0.13083,0.47849,0.35026,-0.44727,0.44322,-0.38013,-0.54812,0.012462,-0.8451,-0.20983,0.032477,-0.069382,0.49603
0.11591,0.79312,-0.061614,-0.81051,0.59915,0.90031,0.33776,0.10264,-0.27044,0.00020097,0.37238,0.2462,-0.068518,0.50635,-0.81017,-0.35838,-0.83243,0.31198,-0.36573,0.58439,0.27008,0.75422,-0.4347,0.90603,0.26112,-0.13881,-0.038061,-0.64604,-0.88911,0.26731
-0.73921,0.64662,-0.84377,-0.98802,0.50998,-0.74598,-0.59225,-0.13148,0.30623,0.60684,-0.38653,-0.62639,0.06025,-0.66544,-0.94543,0.50289,0.41433,0.32807,-0.52901,-0.95326,0.2975,-0.85939,-0.018791,0.70861,-0.59661,-0.62663,0.93989,0.94004,-0.62317,-0.56142
0.83294,-0.86549,-0.74859,0.71822,-0.72666,0.83174,-0.73781,-0.62844,0.036242,-0.54691,0.91467,-0.19659,0.71354,0.34421,0.8012,-0.97444,0.0011698,-0.18952,-0.18914,-0.1862,0.44958,-0.16124,-0.83817,0.28808,-0.59394,0.86179,0.057309,0.18745,-0.76916,0.15625
0.46855,-0.00084955,0.67403,-0.97461,-0.84065,-0.71408,-0.15032,0.070445,-0.77169,0.028695,0.95227,-0.25495,0.9624,0.33553,-0.32726,0.68162,0.11637,0.023789,0.24033,0.45633,0.86229,0.29751,0.74248,0.82039,-0.66871,-0.89139,-0.35726,0.36384,0.74126,-0.049107
0.32596,0.27504,-0.10598,0.85411,-0.10159,0.60818,0.12071,-0.4207,-0.018258,0.091874,-0.081722,0.6915,-0.31584,0.17362,0.35826,-0.8206,-0.60696,-0.20849,-0.75787,-0.17813,-0.27547,0.23031,0.68016,-0.70114,0.88287,-0.70107,0.70233,0.88751,-0.91624,0.033151
-0.58614,-0.83152,0.47951,0.16674,0.1005,0.61444,0.091783,0.393,-0.051599,0.12056,0.016573,-0.35747,-0.39749,-0.96319,0.44035,0.57456,0.74113,0.4582,0.31846,-0.67094,0.62549,-0.067296,-0.66086,-0.2084,-0.74317,-0.98244,0.19254,0.068103,-0.082631,-0.98098
0.20924,0.24516,0.21841,-0.54224,-0.96668,-0.6244,-0.9803,-0.96698,0.9089,0.67689,0.046728,0.59821,-0.9153,-0.62276,0.38525,-0.096993,-0.44405,0.56501,-0.60501,-0.50332,-0.15467,-0.83998,0.91786,0.59651,-0.01044,-0.21474,0.63222,-0.009825,0.49202,0.27939
0.59588,-0.27437,-0.6178,0.92215,0.31235,0.24108,0.77763,-0.17396,-0.91033,0.37981,0.31788,0.78301,-0.84884,0.18429,-0.71376,0.11657,0.82704,0.52699,0.82379,0.34015,0.072555,-0.87132,0.85064,-0.36829,-0.10945,0.33745,-0.70728,-0.0020529,0.96688,-0.01379
-0.32191,0.035713,-0.79214,0.17661,-0.084476,-0.27038,0.96681,0.60755,0.89262,0.58401,-0.68445,0.23264,0.0015321,0.091611,-0.5444,0.65724,0.62469,0.57839,0.42228,0.2387,-0.48757,0.74487,-0.55745,-0.56731,-0.78988,0.011234,0.66846,-0.80781,-0.7922,0.53935
0.10905,-0.73652,0.019208,-0.21901,0.060147,-0.21417,0.53675,0.33874,0.36931,-0.38322,-0.26033,-0.51617,0.13433,-0.12586,-0.60165,-0.66977,0.39087,0.68033,0.3522,-0.077647,0.12781,0.46485,-0.46849,-0.64834,0.52923,-0.71049,-0.14291,0.41629,0.22496,0.56135
-0.98634,0.34627,-0.3522,0.64236,-0.35085,0.98432,0.038856,-0.90221,-0.08999,0.15865,0.60337,-0.82192,-0.084323,-0.17835,0.86086,0.4749,0.24686,-0.32944,0.95944,0.28023,-0.39282,0.87623,0.39488,0.50698,0.3876,-0.64255,0.56854,-0.94148,-0.84485,-0.82589
-0.26242,0.34089,-0.4672,-0.3932,-0.22198,-0.86868,-0.43272,0.1464,-0.0087554,-0.18263,0.12837,-0.64943,0.99343,0.93449,-0.4036,-0.67516,-0.24128,0.87729,-0.045086,-0.12014,0.35899,-0.1558,0.22741,-0.42033,0.4707,-0.2833,0.61854,0.6537,-0.83187,-0.44258
-0.87449,-0.7819,0.63477,-0.34862,0.033927,0.89191,-0.075877,0.93923,0.088364,0.50436,0.26657,0.18555,0.13229,-0.7568,0.55777,0.96132,0.28519,-0.88462,-0.65717,0.92487,0.021324,0.66032,-0.54721,0.57137,0.41466,0.88497,0.28909,-0.7475,-0.77655,0.61508
-0.42845,0.36286,-0.35032,-0.0044654,0.58198,0.092961,-0.70834,0.54066,-0.78707,0.87422,0.37741,0.56882,0.17717,-0.20006,-0.30602,-0.67892,0.63787,-0.96449,0.26033,0.25579,0.7931,0.99149,-0.53416,0.77086,0.18793,-0.30222,0.34714,0.85947,-0.79592,0.77727
-0.52498,0.7492,0.94235,0.078601,-0.13164,-0.5445,-0.099963,-0.17434,-0.2237,0.93338,-0.94715,-0.54047,-0.50992,0.35885,0.64729,-0.63465,-0.60853,-0.90174,0.6052,0.89883,-0.28862,0.061921,-0.85103,0.33149,-0.83749,0.53921,-0.51432,0.12337,0.90032,0.91695
0.53169,-0.27425,-0.12589,0.29483,-0.10114,0.20848,0.9059,0.96661,-0.77414,-0.89141,0.94274,-0.63449,0.59746,0.1403,-0.080225,-0.78172,0.37971,0.065416,-0.66361,-0.87034,-0.88534,-0.60603,-0.74928,-0.88873,0.1806,0.28699,-0.17358,-0.85502,0.31864,0.94124
-0.17684,-0.5311,-0.31309,0.33248,-0.43823,-0.034664,0.92359,-0.10006,-0.71878,0.24866,0.80055,0.97532,-0.043244,-0.30965,-0.40791,0.9479,-0.28232,-0.26371,-0.8235,0.79299,-0.19028,-0.87105,0.96801,0.69654,-0.90564,-0.44912,-0.38122,0.28543,0.47562,0.68185
-0.46236,0.023688,-0.24187,0.26633,-0.7869,-0.013599,0.66806,0.15666,-0.55515,0.44835,0.12407,-0.69545,-0.72581,-0.44712,0.76975,0.97037,0.72084,-0.78804,-0.91132,-0.93724,0.050283,-0.87084,0.45121,0.53747,-0.88719,0.55358,-0.74622,0.75429,0.94816,0.61754
-0.62691,0.48346,0.17441,0.88103,-0.85115,-0.4832,-0.78556,-0.93484,0.53205,0.59884,-0.32185,0.76431,-0.13024,0.9793,0.51428,0.91135,-0.14826,-0.47533,-0.060019,-0.55029,0.20414,0.70106,-0.55489,0.94913,0.91662,-0.17197,0.70081,0.022555,-0.40081,0.63737
-0.37731,0.63782,0.059048,0.66441,-0.75508,-0.77944,-0.43718,-0.57642,0.53855,-0.54679,-0.20414,-0.20199,-0.98913,-0.68897,-0.10883,0.13826,-0.84639,-0.5339,0.52667,0.98912,0.66891,-0.71068,0.7839,0.15568,-0.67723,0.77582,-0.64007,-0.28885,0.9046,0.20967
0.45523,0.95483,-0.005389,-0.86882,0.12951,-0.98513,-0.72409,0.41912,0.083482,-0.87173,-0.16044,-0.47769,0.31831,0.4489,0.019524,-0.10553,-0.76921,-0.48172,-0.45792,-0.62879,-0.35085,-0.89198,0.24092,0.69576,0.63463,0.23285,0.99339,-0.38931,0.32467,-0.17265
0.83324,-0.96531,-0.47443,0.33069,0.25548,-0.52075,-0.49615,0.13383,0.88612,0.45173,0.078324,-0.26352,0.93222,0.77213,0.1405,0.010628,0.37215,-0.64034,0.41879,0.31505,0.77174,0.46337,-0.23687,0.90872,-0.047689,0.25676,0.10026,0.61578,-0.92958,-0.36001
0.62781,-0.98636,-0.87624,0.39193,0.396,0.98895,0.33358,0.52877,0.41355,-0.81797,0.81635,-0.53059,0.43361,0.86029,-0.52562,0.32321,-0.47052,0.057661,-0.55085,0.77465,0.93283,0.19601,-0.87541,-0.17478,0.029968,-0.29058,0.094418,0.86349,-0.045692,0.50867
-0.32288,-0.023031,-0.07502,-0.58641,-0.42684,-0.24548,-0.98816,-0.34024,0.070556,0.34946,-0.036674,-0.42348,-0.27775,-0.075198,-0.44157,-0.70298,-0.69855,-0.79615,-0.93012,-0.81498,-0.46562,0.34471,0.6061,0.18824,0.42164,0.26381,0.76085,0.31663,0.80991,-0.69053
0.37103,0.53127,0.44714,-0.21625,0.49968,0.19521,0.14869,-0.22379,0.76479,0.48976,0.22209,-0.77354,0.33223,-0.036408,-0.85382,-0.61156,0.90369,-0.86994,-0.59436,-0.35245,-0.72601,-0.15947,0.051857,-0.83959,0.16518,0.46624,0.75577,0.59443,0.010708,0.82971
0.94328,-0.30465,-0.80037,-0.17423,0.99034,-0.63689,0.12371,0.57802,0.59182,-0.71557,0.50339,0.44101,-0.72742,0.12412,0.60901,0.22109,0.022052,-0.79927,-0.24885,0.057763,-0.33302,-0.91452,0.3799,0.13617,0.97553,0.079293,-0.19368,0.65493,0.027075,0.45179
0.49377,0.74503,0.23991,-0.52472,0.23793,0.97926,0.16967,-0.70322,0.04437,-0.49332,0.39323,-0.4808,-0.86377,0.38059,0.61533,0.68445,-0.58882,0.44175,0.22619,0.66246,0.97095,0.078839,-0.55424,-0.27577,0.60021,-0.69207,-0.32622,0.97039,-0.27163,-0.19057
0.49156,0.59002,0.20433,0.42232,0.28709,-0.95217,-0.22892,-0.20548,-0.66044,0.31815,0.43816,0.63952,0.98615,-0.61754,-0.091207,-0.17881,-0.44386,0.39073,-0.0014665,0.05209,-0.44897,0.61836,-0.4985,0.23899,0.62769,-0.13982,0.42987,-0.027168,0.48339,-0.88361
0.13936,0.70856,0.68795,0.65151,-0.56447,0.76518,0.37969,0.38768,-0.54439,-0.86192,-0.40781,0.24402,0.038778,0.020339,0.77947,0.2657,0.51858,-0.54232,-0.98735,-0.14989,-0.60586,-0.39752,0.69569,-0.099243,-0.18947,-0.4802,-0.20934,-0.97344,-0.97898,-0.24205
-0.45381,-0.88976,-0.23979,-0.35361,0.53067,0.85641,-0.75694,-0.91733,-0.50038,0.96523,-0.76219,0.052439,-0.44473,0.4881,-0.4519,-0.12684,-0.97035,-0.090898,0.30409,-0.89249,0.44071,-0.83768,-0.36548,-0.46012,-0.33176,0.2877,-0.23161,0.5537,-0.30777,0.67131
-0.17145,0.94093,-0.12229,-0.95953,-0.81404,-0.65438,-0.75238,-0.54811,-0.80262,0.63184,-0.53164,0.70753,0.84464,-0.43974,0.82536,0.47669,-0.63446,0.83884,0.36366,-0.18933,-0.072252,-0.73583,-0.64273,-0.48352,-0.75168,-0.71083,0.94109,-0.78436,-0.96996,0.46953
-0.93429,-0.87444,0.166,-0.69902,0.61056,0.47702,-0.63988,0.71526,-0.14328,0.24143,0.86985,-0.14716,0.16039,-0.015216,0.17102,0.53424,-0.079133,0.66491,0.59639,0.85587,-0.015863,0.72547,0.046409,-0.85981,-0.8759,0.41131,-0.85677,-0.45069,-0.73277,-0.14728
-0.9767,0.36379,0.79058,-0.50495,0.601,0.01003,0.87733,0.82749,0.94303,-0.57754,0.27449,-0.52231,0.57719,-0.10611,0.85909,-0.70282,0.90115,0.44456,0.65346,0.099283,-0.8527,-0.75806,-0.46626,-0.26455,0.90351,-0.17414,-0.13092,0.01756,0.72028,0.16647
0.51236,0.35305,-0.33886,0.37474,-0.6284,0.31571,-0.15246,-0.22706,0.7549,-0.18897,0.36405,0.96351,-0.91064,0.91906,0.33066,-0.96944,0.63026,-0.35513,0.66531,-0.15398,0.35973,0.28125,0.43658,-0.13953,0.58856,0.48446,-0.215,0.75389,-0.81018,-0.51993
0.10367,0.22122,-0.75112,-0.88032,0.74172,0.78578,-0.46077,-0.65635,-0.51836,-0.1289,-0.33452,0.71519,-0.17608,0.82783,0.075224,0.82099,0.59561,0.54496,0.23639,0.21479,0.87124,-0.15501,0.041567,-0.36258,0.68739,0.85777,-0.68435,0.88472,0.68415,-0.56496
0.10232,0.17218,-0.14324,0.56731,-0.32582,0.79496,0.87661,0.075413,-0.29291,-0.010913,-0.75412,-0.37615,0.017796,0.24628,-0.1087,-0.62372,0.34297,0.49669,0.32951,0.72167,0.78809,-0.60369,0.079894,-0.92808,0.39721,-0.77396,-0.6622,-0.63348,-0.85875,-0.70742
0.29791,-0.43722,0.65506,0.60824,-0.020225,-0.9633,0.3338,-0.56674,-0.071346,-0.44011,-0.9478,0.62316,0.55468,-0.28514,-0.18652,-0.23491,0.20976,0.032266,0.15777,-0.064317,0.12812,0.096989,-0.98073,-0.84792,-0.079912,0.93792,0.36058,0.56121,0.46401,-0.23392
0.12601,0.96593,-0.36657,-0.70851,-0.13613,-0.41732,0.35385,0.09683,-0.13751,0.51827,-0.90456,-0.78993,0.17984,-0.75841,-0.67122,-0.9054,0.052468,-0.85939,0.83737,0.86673,0.80214,0.69818,0.66094,0.65661,0.20747,-0.88023,0.016184,-0.53979,-0.66378,0.6205
0.5705,-0.7562,-0.76859,0.56826,0.49881,0.34266,-0.93713,0.75376,-0.23727,0.69637,-0.9344,-0.9248,-0.75628,-0.80788,-0.3034,-0.46923,0.47726,-0.095501,0.64026,0.58036,-0.85033,0.20647,-0.37707,-0.82695,0.89832,-0.24333,-0.77097,0.073435,-0.66617,-0.7649
-0.95728,0.83598,-0.46782,0.39197,-0.74157,0.36797,-0.55531,0.47129,0.65214,0.2879,0.21128,0.22661,-0.90813,-0.52543,0.52613,0.53868,-0.78763,0.66897,0.73987,0.096204,0.29669,0.86863,-0.78733,-0.31741,-0.74692,-0.87961,-0.4279,-0.19734,0.759,0.0081275
0.45389,-0.90696,0.88942,-0.41341,-0.53777,0.69384,-0.47191,0.44215,0.52232,0.95793,-0.77413,-0.81808,0.68065,0.11842,0.082447,-0.55817,-0.12576,-0.18726,0.26479,0.20742,0.73881,0.47722,-0.53543,-0.98875,0.36131,0.48762,-0.55732,0.013545,0.24939,0.73922
0.11543,-0.18631,0.9274,-0.57926,-0.44182,0.12323,-0.34393,0.4196,-0.85666,-0.92691,-0.99672,-0.49677,0.63839,-0.45928,-0.33269,0.87478,-0.50932,-0.33888,0.906,0.78708,0.46046,-0.079659,0.64613,-0.52722,0.83792,-0.81937,0.46104,0.79872,-0.2467,0.131
-0.16771,0.67875,0.26478,0.76714,-0.42158,0.51946,-0.19609,-0.17403,-0.28754,0.010434,0.24675,0.77395,0.36801,-0.90802,0.99911,0.29384,-0.98286,-0.80632,-0.17486,-0.71023,0.85221,0.33458,-0.0018703,0.68635,-0.82413,0.039615,0.17986,-0.721,-0.3674,-0.76973
-0.5167,0.29904,-0.84598,0.77015,0.56952,0.77477,-0.084272,-0.47167,0.074017,-0.49019,-0.15839,0.94232,0.52682,-0.68109,-0.24667,-0.33269,0.61112,0.42126,-0.084831,-0.44853,-0.57444,-0.82554,-0.13647,-0.62682,-0.62356,0.92444,0.64222,-0.97439,-0.018073,0.071494
0.98111,-0.21642,-0.14485,0.39286,0.5878,0.58024,-0.042188,-0.46868,0.66115,-0.8111,0.44928,-0.67768,0.37184,0.95027,-0.749,-0.98686,0.50747,-0.97226,0.8685,0.014377,-0.72551,-0.73926,-0.49983,-0.75425,0.95486,-0.9876,-0.17412,-0.04045,-0.57725,0.52118
-0.27253,-0.67891,-0.019555,0.21343,0.93444,-0.31572,0.5321,0.01811,-0.97822,-0.52735,0.66011,-0.68732,-0.17316,0.18862,-0.87431,-0.23034,0.85898,-0.29971,-0.82569,0.17984,0.1306,-0.41572,-0.16038,0.17171,-0.69272,0.11845,-0.40176,0.75498,-0.98303,0.0033775
-0.39897,-0.086705,-0.20696,0.64951,0.50277,0.79772,-0.12133,-0.035191,-0.24813,0.54952,0.34666,-0.17533,0.5045,0.29932,0.93176,0.31436,0.79915,-0.39176,0.29907,0.73007,-0.50036,0.86646,0.09406,0.71826,0.25105,-0.39112,0.98062,-0.633,-0.7609,0.8964
-0.99606,0.95773,-0.4002,-0.18816,0.99149,0.9632,0.83783,0.010963,0.70705,-0.77188,-0.77547,-0.72772,-0.43534,0.099954,0.24182,0.88022,-0.093818,0.1925,-0.67429,0.094284,-0.082785,0.98083,-0.17725,0.2929,0.38829,-0.33172,-0.28658,-0.72805,-0.16152,0.10541
0.2012,0.58364,-0.35789,0.99715,0.33865,-0.29391,-0.918,0.17405,-0.94689,-0.41059,-0.54344,0.39974,0.1092,-0.061305,0.018636,0.68345,-0.47125,0.55836,0.33571,0.1839,0.60743,0.87958,-0.65139,0.64117,0.58034,0.15408,0.46354,0.59949,0.59754,-0.97751
-0.83419,-0.54589,0.18712,-0.52994,0.29304,-0.72848,0.32397,0.0094938,-0.70578,-0.47455,0.11817,-0.86487,0.1761,0.11019,-0.57858,0.54971,-0.70706,0.23846,0.12913,0.96429,0.81674,0.4996,0.36355,-0.045302,-0.60981,-0.79751,-0.89145,-0.57352,-0.99416,0.72804
-0.94297,-0.51424,-0.38464,-0.67628,-0.11275,-0.53365,-0.0010347,-0.58938,0.76795,-0.073755,0.03114,0.46818,-0.59697,-0.96708,-0.97788,-0.1112,0.20696,-0.56472,-0.45795,-0.7822,-0.092875,-0.53715,0.48584,0.30963,0.31527,-0.90508,0.18658,-0.42948,0.097788,-0.86114
0.59672,0.4747,-0.19895,0.24435,0.32191,-0.5736,0.1145,0.78431,-0.037748,-0.18615,-0.30209,0.1552,-0.12673,0.064153,0.72679,0.65039,0.66056,-0.48201,0.3567,-0.71382,-0.45265,-0.012266,-0.66318,-0.11502,0.84658,0.40259,0.57177,0.57248,0.71624,0.90299
-0.58945,-0.48324,-0.16292,-0.68083,-0.10294,-0.13659,0.652,0.78251,0.23191,0.28217,0.72409,-0.6974,-0.21385,0.088033,0.88175,-0.99475,-0.75499,0.88137,-0.98492,0.18444,0.41596,0.88619,-0.94759,-0.39922,-0.82012,0.75747,0.926,0.49805,0.97392,-0.88768
-0.37299,-0.88229,-0.46401,0.94246,0.50356,0.44334,0.33457,0.30491,0.56242,-0.53259,-0.16312,0.8841,0.095198,-0.43332,0.061516,-0.21016,-0.37923,-0.87221,-0.28085,0.22949,0.7675,0.028304,0.75792,-0.59677,0.15251,0.72362,0.3397,0.95924,-0.040285,0.51959
-0.13392,0.43537,0.76472,0.54184,-0.20755,0.89818,0.19942,0.88518,0.033897,-0.54071,-0.43588,0.71521,-0.20496,0.61504,-0.57521,-0.61088,0.12351,0.48691,-0.42179,0.64975,0.41526,0.85672,0.30776,-0.072368,0.96379,-0.23451,0.57461,0.38189,0.9875,-0.21416
-0.93478,0.62325,-0.16711,0.58543,-0.14257,-0.042772,0.85246,-0.6465,0.42164,-0.055322,-0.16841,-0.8694,0.41377,0.77056,0.35369,-0.81374,0.0021909,-0.15358,0.48295,-0.91044,-0.39931,0.075667,-0.11235,0.45969,0.046777,0.39916,-0.65804,-0.67398,-0.18848,-0.085474
-0.59183,0.97817,0.21582,-0.67647,-0.67646,-0.94195,-0.21678,-0.9926,-0.5179,0.92156,0.55224,-0.76065,-0.79605,-0.88992,-0.75177,0.36194,-0.11324,-0.99786,-0.55991,0.89255,0.71104,0.078484,0.70643,-0.34436,-0.14148,-0.76368,-0.65455,-0.65007,0.73681,0.59571
-0.41295,-0.30584,-0.34659,0.41354,-0.7025,-0.49237,0.17641,-0.36538,-0.17595,0.53406,0.81741,0.92119,0.69997,-0.64515,0.37737,0.35202,0.45458,0.47034,0.77368,0.10899,-0.18505,0.75316,-0.86327,-0.31419,-0.66935,0.45692,0.50541,-0.66236,0.45815,-0.18162
0.99146,-0.58571,0.92476,0.79696,0.3882,-0.71371,0.70948,-0.8404,0.47897,0.1552,-0.40347,0.49545,0.85865,0.33921,-0.015864,0.33581,0.54149,-0.66295,-0.46554,-0.63344,0.9731,0.49806,-0.18425,-0.84774,0.22528,0.11942,0.05569,0.15429,0.72421,0.01053
0.66514,-0.59997,-0.26991,-0.8988,-0.71055,0.39164,-0.078831,-0.47736,0.33136,-0.61244,0.91153,-0.50578,-0.31295,-0.40981,0.1971,-0.74053,0.69594,-0.26761,0.38771,-0.25238,0.97957,0.80461,0.23565,-0.85933,-0.27103,0.92146,-0.20365,0.4279,0.26809,0.91819
-0.022199,-0.70039,-0.30466,0.25641,0.92313,0.022526,-0.4529,0.26454,0.30456,0.24357,-0.82087,0.9334,0.56612,0.36502,0.35363,-0.034441,0.75132,-0.80808,0.38215,0.17928,-0.2223,0.41624,-0.20517,-0.56079,0.9606,-0.1044,-0.20069,0.92165,-0.55649,0.17562
0.9948,-0.72971,-0.62526,-0.21899,0.82892,0.63886,0.52567,-0.34719,-0.28325,0.0044925,-0.56937,-0.017749,0.74231,-0.73299,-0.32163,0.73708,0.86356,0.20831,-0.052068,0.27492,-0.1233,-0.43921,0.56729,-0.65035,0.65776,0.58816,-0.91162,0.187,-0.64586,0.38072
-0.68926,-0.64512,0.6209,-0.8497,0.41043,-0.28594,-0.22762,0.76935,0.91311,0.85371,-0.51738,-0.19622,0.39839,0.072667,0.66886,-0.94428,0.63697,-0.89502,-0.18506,0.095105,0.092985,-0.1063,0.75776,-0.80038,0.83109,0.51248,0.32738,-0.012511,-0.15775,0.55595
-0.21117,-0.26514,-0.42009,-0.9487,-0.93027,-0.93289,0.9314,0.41633,0.028636,0.096223,-0.26559,-0.44692,-0.99081,-0.42914,-0.33301,0.027135,0.084635,0.41522,-0.38118,-0.013132,0.90345,-0.64007,0.084902,-0.71301,0.29813,0.47635,-0.67514,-0.081598,-0.48435,-0.68866
0.96614,-0.33487,-0.045948,-0.46046,-0.7443,-0.087405,-0.99454,-0.9161,0.19986,0.98698,-0.29625,0.00072299,0.75474,-0.13375,-0.76802,0.59195,-0.98075,-0.062299,0.59151,-0.13352,-0.48981,-0.75312,-0.53791,-0.19493,0.77558,-0.58884,-0.3442,0.017407,0.52245,0.092123
0.98803,-0.20069,0.97907,0.33743,0.61564,0.27821,-0.43468,-0.42922,-0.86716,0.86563,-0.56775,-0.51226,0.57253,-0.556,-0.98072,0.49324,0.98705,-0.51123,-0.11525,-0.077644,0.94809,0.47726,0.29978,0.75854,-0.084578,-0.93556,0.24517,-0.062454,-0.32665,-0.85759
-0.46195,-0.35697,0.30623,-0.19069,0.052914,-0.5402,-0.62149,0.38928,0.048874,0.34196,-0.78259,0.19484,-0.80985,0.072224,-0.63403,-0.58855,0.81959,0.4628,0.031195,0.65291,-0.13921,0.032352,0.7276,0.36706,-0.37753,-0.60018,-0.19202,0.68566,0.62332,0.26532
0.84259,-0.2406,0.35349,0.92693,-0.33764,-0.55595,0.36204,0.36661,-0.27678,-0.54739,-0.80275,-0.044064,0.65908,-0.017047,-0.38789,-0.30743,-0.3313,0.7877,0.73559,0.06138,-0.79139,0.8944,-0.3028,0.28687,0.15677,-0.87567,-0.93575,0.38784,-0.47132,0.59126
-0.91533,0.38459,-0.64714,0.22386,0.58551,0.0073126,0.4355,0.60957,-0.77846,-0.22358,-0.26227,-0.77341,0.5951,0.51158,0.14049,0.36735,0.11014,-0.93756,-0.22033,0.9382,-0.39671,-0.84718,-0.62586,-0.81648,-0.17986,0.61303,-0.40984,-0.72506,-0.89035,-0.42763
-0.033173,-0.37057,0.55665,0.85547,0.11057,-0.54826,-0.1298,-0.13283,-0.78747,0.32917,0.048259,-0.72227,-0.49941,0.1816,-0.63257,-0.64198,-0.97888,0.23027,-0.33923,-0.78266,0.92739,0.48619,-0.36546,0.646,0.0045372,0.20094,-0.79209,-0.20195,-0.0060003,-0.29761
0.17931,-0.057037,-0.65086,-0.30277,-0.1169,0.7111,-0.27407,0.13015,0.52136,0.76957,-0.68465,-0.59466,-0.5704,0.26073,-0.62357,0.11591,-0.31345,0.94998,0.57487,0.44794,-0.68586,-0.62466,-0.15995,0.63189,0.57017,0.77561,0.32781,0.22701,0.19271,-0.49185
-0.93332,0.091696,-0.0077132,0.99375,-0.030267,-0.72945,-0.49014,-0.60782,-0.5504,0.20554,0.39336,-0.59074,-0.48668,0.85735,-0.44005,0.22777,-0.43633,-0.071112,0.18098,-0.9931,-0.80017,0.75111,0.44492,0.20754,0.18751,-0.88594,0.075704,0.79468,-0.29865,0.42457
0.86585,-0.53158,-0.49849,0.11985,-0.3646,0.40911,0.74491,-0.44444,-0.20677,-0.31717,0.60569,0.43774,-0.030701,0.14894,-0.23049,0.56861,-0.42213,0.99931,-0.43893,0.9301,0.35359,-0.8961,0.87711,-0.88495,-0.044347,-0.92751,0.12183,-0.19682,0.05713,-0.35512
0.62484,0.59912,0.71762,-0.081106,0.11991,-0.80261,-0.17999,-0.55658,0.14013,0.64007,0.41591,0.013334,0.46362,0.90242,-0.13435,-0.82531,-0.83961,-0.010024,0.0021217,-0.8842,-0.17887,0.4207,-0.92034,0.8423,0.5657,-0.28977,-0.18258,-0.76747,-0.77968,0.57263
-0.79707,-0.124,-0.45801,0.42829,0.24563,0.66308,0.36334,0.38613,-0.94235,0.50762,0.11314,0.7396,-0.57718,-0.71021,0.57452,-0.25119,0.12731,-0.90444,0.091185,-0.60805,-0.24712,0.75002,0.83939,-0.51081,0.17816,-0.77131,-0.26482,0.67908,0.25055,-0.74454
-0.41448,0.1877,-0.71053,0.9689,0.9157,0.029902,-0.65652,-0.66204,0.91729,0.4832,-0.073139,0.7821,-0.76872,-0.88219,0.70265,0.062855,-0.6229,0.33865,-0.75785,0.22036,0.95552,-0.18459,0.21863,-0.083744,0.78664,-0.22512,0.47749,0.53741,-0.702,-0.14072
-0.85175,0.87424,-0.92496,0.97979,0.87276,-0.59923,-0.69666,0.11583,-0.2591,-0.6931,-0.70494,0.89442,0.082072,-0.62489,0.32453,0.12837,0.17175,-0.44431,0.85446,-0.56661,-0.52392,-0.18833,-0.85192,0.11753,-0.91056,-0.017136,-0.098414,-0.44699,0.26745,-0.99554
0.58198,-0.19127,0.047964,-0.33424,0.91097,-0.75719,0.21719,0.60535,0.77314,0.63544,-0.2273,-0.37094,0.31857,-0.14907,0.0071797,-0.57225,0.30875,0.10093,0.46273,-0.11781,0.72395,0.15892,-0.39939,0.95179,0.93343,0.6467,-0.33246,0.66062,0.90979,0.48743
0.41445,-0.35268,-0.81045,-0.71783,-0.49688,0.77564,0.79442,0.12284,-0.39821,-0.048445,0.23981,0.34364,-0.68029,-0.098615,-0.58992,0.83087,-0.13369,-0.47687,0.10805,0.064357,0.65626,0.010655,0.91503,-0.44578,-0.35163,0.44688,0.10411,-0.38203,0.51116,0.31014
0.58317,0.2793,-0.58643,0.43924,-0.34918,-0.23926,0.39778,0.97935,-0.68933,0.29031,0.5066,0.4466,-0.10459,0.3953,0.3829,-0.78467,0.58794,0.37084,0.056829,0.35276,-0.06798,0.57367,0.86845,0.62389,0.056991,-0.64004,0.01843,0.22755,-0.35944,0.67049
0.72541,0.94251,0.30171,0.76698,0.39471,0.4494,0.977,-0.14458,0.9045,-0.47605,0.22212,0.10441,0.31817,-0.12661,-0.097185,0.09282,0.21072,-0.82912,-0.22419,-0.28794,-0.51184,-0.27381,0.95045,-0.7454,-0.93436,0.83589,0.25223,0.70423,0.51877,0.86969
-0.17793,0.89829,-0.47889,-0.24073,0.225,-0.41783,-0.63525,0.58277,-0.52581,-0.37561,0.52128,0.96871,0.8199,-0.43937,0.31917,0.1263,-0.61091,-0.02065,-0.72772,-0.15123,-0.18434,-0.99231,-0.5857,0.031241,0.37037,0.558,0.05443,0.8921,0.3293,0.7266
0.64035,-0.10368,-0.54061,0.9035,-0.70069,0.90381,-0.23073,-0.30956,-0.43359,-0.318,-0.072417,0.16555,-0.65722,0.32277,0.30156,-0.6232,0.71455,0.10264,-0.61862,-0.069009,0.50003,-0.19973,0.92035,-0.068652,-0.0078384,-0.29373,-0.76149,-0.15068,0.74232,0.43593
0.063385,-0.25769,-0.15411,0.082879,0.4605,0.68021,-0.85882,0.10574,-0.68177,0.50789,-0.64023,0.76014,0.62826,0.014806,0.2124,0.44233,-0.2913,-0.72634,0.049446,-0.39642,-0.90873,0.15489,0.82195,-0.63225,0.56563,-0.90625,-0.18738,0.48334,0.79463,-0.81732
-0.039177,0.98369,-0.34853,0.080561,-0.98515,0.83724,-0.021688,-0.65484,0.27002,-0.96572,0.055103,-0.074031,-0.33857,0.76689,0.7747,-0.17913,0.70542,0.4528,0.27056,-0.70409,-0.26483,0.52427,-0.27083,-0.075832,0.2601,0.59078,-0.21552,-0.82039,0.63435,-0.63977
-0.59146,-0.78888,0.2125,-0.17298,0.1733,0.41862,-0.19838,0.53523,0.60222,-0.19165,0.98508,-0.48932,-0.96305,-0.92232,0.12908,-0.62151,-0.16796,0.045736,-0.72852,-0.14322,0.085853,-0.55344,0.19242,-0.29657,0.25741,0.45313,0.38294,0.42422,-0.094478,0.65413
-0.04156,-0.4176,-0.18907,-0.054628,-0.75403,-0.05055,0.42862,-0.49785,0.68317,0.014044,-0.83715,0.49257,0.73244,-0.37713,0.27504,-0.56494,-0.47936,-0.55184,0.67316,-0.9983,0.34032,-0.28658,-0.91857,0.35365,0.32321,0.77679,0.31263,0.21332,-0.24531,-0.52102
0.27788,0.47812,0.46572,0.19621,-0.72683,-0.22331,-0.6857,-0.59461,-0.061757,0.22325,0.7408,-0.99401,0.80869,0.69793,0.20909,-0.996,0.30964,0.71124,0.6629,-0.91568,-0.01433,0.55068,-0.94571,-0.48117,-0.17605,-0.33237,-0.16328,0.049602,0.54701,0.50821
0.55503,0.97361,0.37484,-0.95231,-0.48409,-0.01062,-0.72301,0.71077,0.95577,-0.26292,-0.2176,-0.7541,0.27149,0.81769,0.77844,-0.38208,-0.58449,0.87479,0.80416,-0.42491,-0.43772,-0.80404,0.24552,0.35407,0.75619,0.88962,-0.57436,-0.79127,-0.16862,-0.046137
0.773,0.94424,-0.40059,0.45119,0.15004,0.91603,0.40543,-0.34349,-0.53891,-0.76589,0.61115,0.94868,0.27965,-0.16028,-0.7175,0.31772,0.60297,0.92966,0.078264,-0.02511,-0.1227,0.31887,0.2568,-0.9197,-0.30379,0.58908,-0.16551,-0.50724,-0.24794,-0.23658
-0.014782,-0.78095,-0.4943,-0.16692,-0.84284,-0.59879,-0.41384,-0.89616,0.43806,-0.31362,0.14483,-0.57747,0.21435,0.53252,-0.95535,-0.36562,-0.24734,-0.72068,-0.18187,-0.068977,0.87218,0.93584,-0.3615,-0.15409,-0.23276,-0.23969,0.63296,0.47898,-0.3786,0.12988
0.62466,-0.41453,-0.9078,0.5953,-0.25958,0.61897,0.53127,-0.028988,0.12669,0.16455,-0.74507,0.14742,-0.061634,0.36317,0.66636,0.80953,-0.6647,0.80894,-0.24248,0.33479,-0.19131,-0.65707,0.73261,0.69627,0.97697,0.8626,0.076467,-0.76155,0.7329,0.14986
-0.37134,-0.047711,-0.98228,-0.079089,-0.47937,-0.56397,0.55468,0.42364,0.25554,0.40013,0.50253,-0.92754,-0.9579,-0.17082,0.74994,0.10359,0.54343,-0.054858,-0.22094,0.68502,0.21061,0.89481,-0.73048,-0.27915,-0.57513,-0.6472,-0.73515,0.22947,-0.82503,0.95824
0.45416,0.52352,-0.17995,0.8462,-0.13044,0.85244,0.37495,0.89423,0.75739,-0.3978,0.97246,0.30675,-0.69407,-0.75246,0.11681,-0.37116,-0.32694,-0.587,-0.3885,-0.5281,-0.59554,0.10359,0.79097,-0.065793,-0.15391,-0.67785,-0.54948,-0.81911,-0.61919,0.87985
0.85372,-0.56304,0.84114,0.062908,0.4673,-0.69014,0.23307,0.97556,0.76091,0.56081,0.86375,0.49281,-0.75742,-0.14213,-0.41869,0.33618,0.14282,-0.49237,-0.44174,0.82178,-0.87851,0.27463,0.22105,-0.36047,0.72672,-0.81778,0.52564,-0.19972,-0.62225,0.76782
0.090899,0.66125,0.17044,0.065737,-0.84305,0.44395,-0.51054,-0.62529,0.56638,-0.8128,0.05693,-0.534,0.13181,0.73262,0.65651,-0.5812,0.077302,-0.57183,-0.32921,-0.12865,-0.73107,0.16373,-0.62435,0.17718,0.25576,0.78252,-0.27083,0.8816,-0.74682,0.89213
-0.63782,-0.42695,-0.88406,0.84063,-0.60297,-0.46656,-0.41363,0.99942,0.24694,-0.66714,-0.91295,-0.10992,-0.71321,-0.12167,-0.7475,0.80785,-0.032069,0.9794,0.34203,-0.53371,-0.96503,-0.40208,-0.37169,-0.40053,-0.32698,-0.20093,-0.38501,0.88099,0.62399,-0.41908
0.34399,0.61794,0.33024,0.59306,0.6947,-0.93762,-0.31455,-0.94677,0.3669,-0.68199,-0.38174,0.14411,0.0026041,0.67101,-0.4569,0.84356,-0.028156,-0.57248,-0.27485,-0.61266,-0.39018,0.71835,-0.26197,-0.89794,-0.063266,0.3692,0.71024,0.73481,-0.60097,-0.72432
-0.73177,-0.77953,-0.85423,-0.16629,0.66594,-0.77933,0.12412,0.59787,-0.82154,0.35653,-0.1201,-0.048831,-0.48192,0.43946,0.65027,0.54156,-0.9923,0.32542,-0.33223,0.96652,-0.75883,-0.03915,-0.49088,-0.8105,0.95902,-0.69943,0.23227,0.062845,-0.40526,0.53092
-0.42897,0.63833,-0.53511,-0.21885,-0.58294,-0.5005,-0.85203,-0.05447,-0.77692,-0.13429,-0.19492,-0.86373,0.96025,-0.48678,-0.34754,-0.48441,-0.4182,-0.30976,-0.24035,0.50828,0.32651,0.89614,0.38103,-0.61921,-0.36979,-0.094354,0.024816,-0.050472,-0.16435,0.24504
0.24786,-0.80499,-0.9522,0.33572,-0.99631,0.20341,-0.61461,-0.087109,-0.30968,-0.80607,0.62739,0.016842,-0.28648,0.2693,0.68258,0.19734,0.51707,-0.078454,0.45653,0.89132,-0.84659,-0.10056,0.89066,-0.17845,-0.5522,-0.88795,-0.501,-0.48945,0.45787,-0.36555
0.63107,0.45001,-0.75711,0.86449,0.79103,0.040464,-0.078842,-0.68767,0.98314,-0.27884,0.22409,-0.89935,0.38437,-0.97815,-0.46503,0.97247,-0.46232,0.67371,-0.65847,-0.24783,-0.059132,0.49218,0.75449,0.96482,-0.049205,-0.1847,0.52421,0.031049,0.75743,-0.70895
-0.91302,-0.35026,-0.54869,-0.40803,0.96265,0.26393,0.39917,0.10901,-0.56374,-0.65124,0.1882,-0.72331,0.25551,0.9613,0.45437,0.11798,0.77393,-0.089367,0.58595,0.62445,0.053088,-0.34536,0.082921,-0.068726,-0.27271,0.77472,0.14273,-0.64507,0.94588,0.34419
0.54327,0.69517,-0.15718,-0.28262,0.66991,0.66183,0.79401,-0.46237,-0.33559,0.35706,-0.027995,0.9302,-0.58816,0.42041,0.14922,-0.74461,0.46388,-0.089755,0.34573,-0.52044,-0.75353,-0.34068,-0.96179,-0.48829,0.14666,0.5572,-0.66827,-0.8556,0.18724,0.4173
0.27455,-0.22651,-0.78249,0.43291,0.017865,-0.51099,-0.77632,0.0097865,0.46147,-0.18233,-0.99097,-0.99097,0.76684,0.42992,-0.5926,-0.13593,-0.13133,0.55935,0.016314,0.3005,-0.87125,0.25189,-0.8717,-0.78963,0.56643,0.85412,0.59256,-0.75126,-0.37603,-0.7433
0.14814,-0.59338,-0.93244,-0.30297,0.17552,0.54597,0.48796,0.3374,0.29067,-0.68913,-0.26821,0.26232,-0.33286,-0.233,0.49429,0.74127,0.22962,0.40301,0.58075,0.27009,0.46331,0.4552,-0.45645,0.68583,0.1776,0.55477,0.70451,-0.52522,-0.35382,0.39076
0.30858,0.79781,0.86292,0.51497,0.69962,-0.87646,0.068929,0.89327,-0.84464,0.029871,0.89484,0.4214,-0.97555,-0.70887,-0.87474,0.65439,-0.86346,-0.50984,0.16563,0.13181,-0.53245,0.10081,-0.45871,-0.42253,0.70909,0.77587,-0.40665,0.22088,-0.8939,-0.93133
-0.36823,0.9146,-0.53546,0.29874,-0.54553,-0.87912,-0.98203,0.59942,0.80178,-0.9501,0.094735,0.9085,-0.12395,-0.24012,-0.91031,-0.48338,-0.76125,0.84255,-0.1344,0.57867,-0.63123,-0.96216,-0.21451,0.39432,-0.91871,-0.68297,0.41381,-0.32202,-0.83375,-0.73193
0.32312,-0.75482,0.27874,-0.38139,-0.90809,0.8643,0.017316,-0.0013246,-0.31983,-0.61451,-0.66626,-0.3901,0.75528,0.86146,0.50197,0.076829,0.29874,0.032759,0.061138,0.45902,-0.8195,-0.49665,-0.011952,0.21032,0.88895,0.71335,0.11882,-0.26819,0.83853,0.34187
-0.83661,0.66348,-0.89732,0.69996,-0.13427,0.89199,0.84415,-0.55888,0.04188,-0.95886,-0.55427,-0.98252,-0.93015,0.73381,0.46683,-0.94625,-0.17363,-0.69445,0.21866,0.51773,-0.83106,-0.65359,-0.83648,-0.52298,-0.090342,0.18999,0.09607,-0.77815,-0.68312,0.52987
0.5512,-0.67396,0.44493,0.8406,0.38978,-0.65069,-0.80912,-0.42133,0.19619,0.80523,-0.48403,-0.05444,-0.9433,0.55985,0.14692,0.78682,-0.1974,0.009693,-0.76324,0.012554,0.43199,-0.54509,-0.403,0.050208,0.4659,-0.18679,0.98933,-0.22908,-0.58376,-0.24293
-0.87584,-0.02647,0.89372,-0.040027,0.60819,0.63864,0.16432,0.62319,0.64888,-0.8957,-0.39584,-0.72366,-0.47174,0.81045,0.41395,0.69767,-0.91163,0.93178,0.20966,0.67793,0.1497,-0.61202,0.93531,0.84946,-0.16085,0.3922,-0.3006,0.45851,0.0010511,-0.56736
-0.48831,0.26578,0.75386,-0.35777,0.57765,-0.68376,0.89765,-0.90547,0.25495,-0.10845,-0.33081,-0.28808,-0.36876,-0.22601,-0.67225,-0.6365,-0.71711,-0.83883,0.22099,0.15916,-0.29976,-0.35729,0.30013,0.67629,-0.28085,0.94468,0.53541,-0.55333,0.20775,-0.73798
-0.86685,-0.021776,-0.65487,0.18052,-0.52644,0.21789,0.87248,-0.15609,0.12478,-0.95226,0.72511,-0.090739,-0.25182,-0.75022,0.71337,-0.45975,0.086776,-0.82052,0.19973,-0.82088,0.19766,-0.089408,0.73943,0.6406,-0.23765,0.28247,0.35383,-0.093303,0.24517,0.1509
0.4655,-0.35393,0.18346,-0.27834,0.088711,-0.36402,0.31964,-0.55771,-0.69748,-0.5792,0.069495,-0.92046,-0.65154,0.61887,0.061184,-0.58054,0.70274,-0.62321,0.44035,-0.93609,0.054189,-0.32841,-0.24244,-0.79429,0.46027,0.78109,0.18236,-0.091347,-0.09383,0.23691
0.0051461,0.61996,0.099655,0.10165,-0.15781,-0.52717,-0.80537,0.41666,0.025301,-0.83371,0.8155,-0.24429,0.11397,0.22052,0.19874,-0.63374,0.73538,-0.30054,-0.87371,0.95764,0.83896,-0.34971,0.43558,-0.1875,0.2992,0.081489,-0.43132,0.26878,-0.99104,-0.065167
-0.34611,0.15247,-0.672,-0.98405,0.29697,0.46486,0.42471,0.091931,-0.98891,0.60773,0.6577,0.60673,-0.70895,-0.73971,0.60368,-0.69125,-0.9223,0.98097,-0.81646,-0.95378,0.11031,-0.10104,-0.91506,-0.62495,-0.91306,-0.32935,-0.6977,0.38647,-0.20865,-0.12198
0.65129,0.53678,0.24969,-0.61961,0.80806,0.57039,0.71583,0.23166,0.15999,-0.77035,-0.85881,-0.26419,-0.69316,0.40558,0.34464,-0.28579,-0.73772,0.0018772,-0.11971,0.9621,-0.6476,-0.08555,0.15275,-0.22994,-0.37388,-0.91801,0.7873,0.11385,0.053039,-0.8169
-0.24513,-0.1558,0.68192,-0.1333,0.98159,-0.78577,-0.86018,-0.66562,0.99215,0.50456,-0.45861,-0.5617,0.23861,0.61852,0.59048,-0.08703,-0.46814,-0.5134,0.4207,0.046861,-0.75473,0.81156,0.6592,-0.45212,0.44923,0.63772,-0.38502,-0.20023,0.99655,0.082478
-0.17318,-0.426,-0.65045,-0.21741,0.058962,0.053413,0.24877,0.69384,-0.51527,0.27479,0.73699,-0.048647,-0.091561,0.52916,0.64451,0.88549,0.577,-0.79199,-0.83015,0.85863,0.60589,0.93815,-0.66264,-0.0026411,0.54157,-0.60077,-0.118,-0.2036,0.12382,0.43741
0.44385,-0.48538,-0.49852,0.031917,-0.75359,0.77632,-0.19252,-0.5642,0.027078,-0.52242,0.86107,0.083751,-0.19228,-0.92918,-0.91572,-0.66243,-0.76515,-0.75299,0.16044,-0.45562,0.18577,-0.8099,-0.63721,0.39736,0.021856,0.81934,-0.073686,-0.63194,0.8989,-0.54654
0.12011,0.6487,-0.31349,-0.47985,-0.43004,-0.59911,-0.27032,-0.76977,-0.62786,-0.28065,-0.46111,-0.75781,0.43249,0.8303,-0.30056,0.35102,0.049655,-0.9193,0.041594,-0.7002,-0.4117,0.88861,0.69021,-0.19648,-0.3712,-0.37833,0.76455,0.72309,-0.1599,0.39696
-0.11789,-0.36013,-0.93425,-0.54369,-0.12122,0.06137,-0.86927,0.27061,0.43135,-0.089162,0.9151,0.79738,-0.40093,-0.31221,0.55726,-0.34764,-0.59205,-0.9218,0.73893,0.070862,0.048501,-0.17423,0.32747,0.87739,0.71676,0.38039,0.0094164,0.5957,0.10223,-0.87792
-0.40134,-0.62991,0.581,-0.19966,0.5542,0.20562,0.51393,0.30216,0.1265,-0.6292,-0.77299,-0.69613,0.71481,0.75632,-0.53331,-0.73541,-0.65084,0.20161,-0.18096,0.80235,0.21824,-0.51614,-0.8229,-0.0074229,-0.8387,-0.24635,-0.26888,0.71637,0.37306,-0.10816
0.49218,0.26746,0.92233,0.48173,0.41127,0.65968,0.58312,-0.30299,0.41587,0.86414,-0.55492,-0.23503,-0.795,-0.21071,-0.064699,0.42113,-0.94,-0.63966,0.8534,-0.51847,0.3077,-0.51703,-0.68077,0.14094,0.65873,-0.49578,0.40975,0.027013,0.54279,-0.99523
0.95901,0.27007,-0.33434,0.98453,0.40769,0.14169,-0.68683,0.61002,0.67163,-0.48242,-0.47019,-0.31821,-0.85247,0.32721,0.84952,0.72187,-0.033287,-0.18369,0.0082202,-0.19985,0.61381,0.34546,0.048767,-0.067325,-0.29328,0.78935,-0.62661,0.25106,-0.78006,-0.34142
-0.56681,0.62061,-0.74105,0.5434,0.40115,-0.27098,0.1131,-0.72746,-0.45886,-0.6516,0.065867,0.18915,0.78821,-0.13485,0.66843,-0.6629,0.62573,0.5887,-0.61384,-0.91398,0.76675,0.48299,0.93796,-0.17804,-0.29487,0.3287,0.042006,-0.1389,0.72392,-0.1802
-0.85157,0.60518,0.3574,-0.68698,0.23479,-0.98319,-0.49954,0.43105,-0.51228,-0.90694,-0.21756,-0.48249,0.33679,-0.1729,0.84504,-0.55712,0.41472,-0.13695,-0.51431,0.13683,0.038897,0.12972,-0.96875,0.7767,-0.53782,-0.18605,-0.97513,-0.68143,-0.071517,0.23719
-0.75759,0.91531,-0.13727,-0.83216,0.43435,-0.42429,-0.76493,-0.8686,-0.42953,-0.90343,-0.085153,-0.49356,-0.21272,-0.53742,0.78692,0.45586,0.87033,0.48344,0.90276,0.77385,0.59892,0.76279,-0.9094,-0.29217,0.90843,0.05148,-0.46781,0.063619,0.32742,-0.54834
-0.54721,-0.50025,-0.81731,0.85895,-0.45249,0.77039,-0.35012,0.38148,-0.68836,0.82891,0.52468,-0.33864,0.08088,-0.88931,-0.73644,0.89618,0.79572,-0.040376,0.33918,0.10462,0.16209,0.187,0.6978,-0.092176,-0.88795,0.13896,0.39161,-0.28233,0.49756,0.46262
0.37783,-0.60356,0.61721,0.22414,0.62264,0.060784,-0.25761,-0.53542,0.358,-0.35079,-0.50183,-0.73379,-0.33748,-0.54583,-0.48244,-0.76585,0.14084,0.32167,0.68669,-0.045806,-0.32694,0.2615,-0.47046,-0.50086,-0.028983,0.58933,-0.62996,-0.91453,-0.59215,-0.2784
-0.81978,0.38636,0.34908,0.68982,0.31278,0.74424,0.098362,-0.62256,0.13966,-0.51183,-0.066324,-0.3958,0.58445,0.9526,-0.49215,0.42882,-0.12861,0.03078,0.52485,0.38862,0.32238,0.2624,-0.28363,-0.02066,0.10734,-0.38205,0.4808,-0.043785,0.70997,-0.99801
0.54727,0.47566,-0.48152,0.29133,-0.69382,-0.38104,-0.25383,-0.70128,-0.11855,-0.92992,0.73848,-0.942,-0.85132,0.44673,0.043464,-0.080365,-0.74253,0.2834,-0.7907,-0.45378,-0.59841,-0.85604,0.18178,-0.34878,0.019907,-0.74356,0.71197,-0.17644,-0.48902,-0.48992
-0.79827,0.57425,-0.8749,-0.75566,-0.3229,0.98263,-0.85674,-0.71868,0.56561,0.98793,-0.31296,-0.50926,-0.68081,0.5077,0.065749,-0.96527,0.20586,0.12274,0.16493,-0.2716,0.1041,0.36831,0.15206,0.11615,-0.1102,-0.73207,-0.52704,-0.902,-0.57033,-0.92818
