-0.17089,-0.9774,-0.22568,0.71943,0.56136,-0.41296,0.78238,0.46387,0.51852,-0.97132,-0.28421,0.81239,-0.0096773,-0.67895,-0.71728,-0.66484,-0.6035,0.51086,-0.13539,-0.69842,0.15455,0.82267,-0.55385,-0.53517,0.92878,0.023047,-0.66559,0.47102,-0.65323,0.73752
-0.41717,0.30937,0.063157,-0.7419,0.014495,-0.024187,-0.61762,0.84023,0.61662,-0.75847,0.83026,0.78039,-0.29962,-0.62296,-0.052779,-0.42998,0.067019,-0.79734,0.2047,-0.76148,0.43336,0.2284,-0.071286,-0.22217,0.071954,0.59764,-0.055488,-0.63142,-0.5641,0.49548
-0.058736,-0.34647,-0.92549,-0.91793,-0.9544,0.83945,-0.26881,-0.65245,-0.13474,-0.055789,-0.9149,-0.86858,-0.58035,0.98571,-0.84967,0.44371,-0.50422,0.83492,-0.13662,0.5437,-0.404,-0.76474,-0.77159,-0.45016,0.58127,-0.7456,0.89698,-0.94005,0.72321,0.011766
0.59322,0.59825,0.91568,-0.48634,0.60289,-0.22587,0.81511,-0.69703,0.667,-0.27507,-0.21914,0.91171,-0.0035601,-0.51141,-0.96894,0.19711,-0.14409,0.98043,-0.43483,0.86385,0.69597,0.51603,-0.4122,-0.68759,0.10585,-0.018953,-0.58909,-0.73099,0.90696,0.052244
-0.021761,-0.61793,0.28458,0.93281,0.60496,-0.23506,0.12465,-0.063874,0.75691,0.84639,-0.48906,-0.11769,0.22142,-0.9221,0.73234,0.2261,-0.35003,-0.068479,-0.8219,-0.90172,0.59067,0.16128,-0.27533,0.29395,-0.4378,-0.12582,-0.88428,-0.75866,0.75872,-0.089768
-0.91633,-0.2573,-0.69715,-0.45662,-0.24569,0.51293,0.39686,-0.50585,-0.10356,0.1616,-0.4291,-0.43008,0.0069718,-0.71135,-0.984,0.87217,0.30334,-0.58253,0.33578,-0.36309,0.01507,0.62996,-0.12549,0.97052,-0.53314,-0.99477,-0.44679,-0.87976,-0.97667,0.77596
-0.25171,0.24268,0.16704,-0.17165,0.48948,-0.78238,0.32807,-0.18903,-0.23349,0.49501,-0.16183,0.20735,-0.094272,0.85119,-0.25894,-0.44459,-0.54963,-0.11773,0.9148,-0.79598,0.85703,0.98438,-0.023227,-0.6862,-0.44627,-0.48222,0.57344,0.92571,0.78242,-0.60319
0.36647,-0.59716,-0.52689,0.18054,0.70716,-0.13164,0.39076,-0.41371,-0.63539,0.82478,0.82306,-0.099631,0.13448,-0.39837,-0.62817,0.17947,0.89226,0.56249,-0.22069,-0.75641,0.72445,-0.59761,-0.061158,0.48324,0.43034,-0.099099,0.68294,0.10119,0.46031,-0.50091
-0.505,-0.68887,0.84913,0.35083,-0.79856,0.038961,0.71762,0.83585,0.79253,-0.29252,-0.70954,-0.81003,0.79368,-0.12911,0.059276,0.67752,0.041265,0.96065,0.076837,0.4792,-0.26676,0.80222,0.70812,-0.15333,-0.70204,0.53299,0.059567,-0.48129,-0.78021,-0.83816
-0.24003,-0.90599,0.30762,0.7725,0.41918,-0.60406,0.19315,0.685,0.49896,-0.086818,0.65324,0.557,-0.1144,0.021949,-0.075844,0.9205,0.82065,-0.83588,-0.44156,-0.62988,0.55577,-0.58167,-0.6251,0.93296,-0.15076,0.94202,-0.94437,-0.1507,0.39518,0.37352
0.10348,0.53061,-0.98196,0.91836,0.42764,0.2495,0.87516,-0.62852,0.21378,0.19851,-0.10936,0.41657,0.26051,0.33444,-0.17095,-0.7477,-0.8268,-0.77059,0.96135,-0.16824,-0.19517,-0.73192,-0.37684,0.60886,0.94003,-0.3327,0.45137,-0.17748,0.83661,0.13774
-0.39142,0.8751,-0.056775,-0.14463,-0.68248,-0.50479,-0.85808,0.12453,0.69044,-0.29659,0.56597,0.86893,0.80152,-0.64396,0.59591,0.40739,0.2795,-0.30117,0.21893,0.93305,0.8802,0.37236,0.56693,0.94187,0.37377,0.3955,0.4799,-0.35189,0.54863,0.30732
0.41997,0.51026,-0.98114,0.32636,-0.59385,0.05262,-0.30934,-0.27899,0.68304,-0.64511,0.99999,0.52878,-0.19877,-0.62196,-0.15821,0.26705,-0.28119,0.18988,0.05594,-0.56194,0.2483,-0.11588,-0.070458,0.96665,0.45877,-0.95067,0.57555,-0.84842,0.54515,0.52129
0.68621,-0.13897,-0.14269,0.1869,-0.76995,-0.91635,-0.90789,-0.16662,0.76408,-0.94278,-0.49528,-0.47422,0.76116,0.81152,0.8243,0.78776,0.95919,0.2759,-0.93744,-0.31385,-0.66691,-0.12075,-0.62884,0.55024,-0.85935,0.9059,-0.066334,0.74774,0.12871,-0.13217
-0.50319,-0.79684,0.556,0.88545,0.75137,0.29192,-0.94066,-0.99663,0.27839,-0.32522,0.43343,0.9881,-0.3022,-0.82536,-0.62164,0.17147,-0.77336,-0.49184,-0.91325,-0.048993,0.84689,0.51227,-0.75749,0.92361,-0.93276,-0.59868,0.97748,0.62965,0.13846,-0.13447
0.73947,-0.57838,0.022197,0.38561,-0.96516,0.018117,-0.24563,-0.48774,-0.25627,0.55211,0.008458,0.26351,-0.61075,0.29466,0.37994,0.87533,0.58729,-0.9249,-0.20003,0.74844,-0.042097,-0.21335,0.025067,0.27771,0.24529,-0.44133,-0.38054,-0.12174,-0.49693,-0.088713
0.04878,-0.80017,0.5808,0.66669,0.86099,0.079576,-0.01765,-0.96388,-0.65155,-0.33359,0.045864,0.32694,-0.64875,0.58569,-0.87489,0.047825,-0.27243,-0.66578,0.42057,-0.30155,0.48627,0.58516,0.43714,-0.96086,-0.55813,0.6624,-0.54945,-0.94684,0.65052,-0.58979
0.76108,0.65088,-0.87034,-0.96295,-0.94203,-0.033058,0.78438,-0.70857,0.066924,-0.60013,0.43072,0.075451,0.63798,0.6314,0.12183,-0.2171,-0.37606,-0.059976,0.22711,0.52277,0.082708,-0.66438,-0.80835,-0.49158,0.4208,0.78318,0.39141,0.02756,-0.49927,-0.073374
-0.8832,0.9407,0.98219,-0.43871,-0.53769,0.90797,-0.15313,0.08616,-0.61221,-0.52854,0.58012,0.83585,0.59778,-0.20286,-0.25666,-0.58748,0.052514,0.33295,0.019865,-0.13764,0.10456,0.16517,0.54653,0.42926,0.15435,-0.59756,0.86431,-0.55244,0.93584,-0.71422
-0.89411,-0.40705,0.3233,0.31912,-0.63045,0.86343,-0.48655,-0.41933,-0.79435,-0.85942,0.05047,-0.64413,0.6801,0.61557,-0.78665,-0.97844,-0.72224,-0.79512,-0.97304,0.60251,0.16656,-0.81986,-0.58264,0.44945,-0.5702,-0.1087,0.072003,0.38038,0.89488,-0.18466
-0.62656,0.99345,-0.90284,0.91342,0.26356,-0.50072,0.75488,-0.29822,0.61462,0.47154,-0.30602,0.27088,-0.92201,-0.43133,0.96656,0.40841,0.89478,0.98601,0.78535,0.5545,-0.87476,-0.60428,0.054937,0.62313,-0.52021,0.76983,-0.10801,0.15136,0.51967,0.69638
0.49469,-0.13011,-0.078025,-0.67327,0.31407,-0.722,-0.42016,0.4744,0.53083,-0.81887,0.17787,0.34139,-0.37938,0.2819,-0.87013,0.062283,0.98241,0.42633,0.21165,-0.024653,-0.061359,0.37874,-0.7104,-0.57336,-0.4244,0.059638,-0.55152,0.41511,0.2148,0.91105
0.55432,-0.6314,0.12951,-0.76426,0.58961,-0.60457,-0.71895,-0.08819,-0.80516,0.59708,0.058279,-0.58401,0.93974,0.87924,0.11646,0.73268,0.81814,-0.30894,0.90821,-0.84266,-0.049449,0.24166,-0.13331,-0.23242,0.021235,0.52696,0.16616,0.093288,-0.066268,-0.41768
0.44474,0.91491,-0.7334,-0.00020663,-0.51388,0.97904,0.14817,0.16821,-0.37831,0.11096,-0.12444,-0.49047,-0.59101,0.51118,-0.060449,0.54174,-0.42477,-0.30227,0.78452,0.50224,0.11122,0.34752,-0.66121,-0.63941,0.0060264,-0.26307,-0.84715,0.37178,0.6828,0.48829
0.75271,-0.059041,0.6964,-0.051326,0.38842,0.95572,-0.070444,-0.28573,0.8286,0.66037,0.80853,0.95169,-0.50882,0.1371,-0.94641,0.723,-0.19621,0.41745,-0.48367,0.06419,-0.37299,-0.25334,0.54335,-0.86392,-0.84929,-0.81435,-0.89517,0.27216,-0.28769,0.53483
-0.5015,0.54634,0.63644,0.51992,0.67857,0.82608,0.084346,0.97676,0.73823,0.43006,0.37541,-0.47891,0.90309,-0.15397,0.23124,-0.84717,0.068187,0.49078,0.95714,-0.49044,-0.38247,0.43845,-0.55123,0.95033,-0.68246,-0.78681,-0.58461,-0.3546,-0.81863,0.87305
0.97124,-0.36533,-0.19433,-0.4886,0.92438,-0.075689,0.90318,0.16682,0.21856,-0.30013,-0.42445,0.16547,-0.88003,0.2042,0.65748,-0.37823,0.26885,0.88956,-0.97955,0.50166,-0.23491,0.99589,-0.22293,0.29382,-0.077376,0.021393,0.87949,0.42436,-0.48686,-0.44537
-0.73456,0.57215,-0.72766,0.53183,0.60251,-0.72522,0.32723,0.54807,-0.0863,0.89162,-0.6728,-0.536,0.46493,0.32204,0.6943,-0.47908,0.37824,0.60173,0.86209,-0.79075,0.7102,0.042482,-0.14791,0.68613,0.10028,0.3663,0.95521,-0.72221,0.42735,-0.69526
-0.22647,0.5841,-0.82037,-0.6778,-0.55045,0.67182,-0.95724,0.75147,-0.93917,-0.92712,-0.56223,-0.97549,0.73709,-0.70394,-0.86803,0.78102,-0.62963,-0.70156,0.2653,0.44899,0.70915,-0.38042,0.4607,-0.31278,0.94555,0.50672,-0.063958,0.23992,-0.54241,0.19232
-0.25368,0.11126,0.5544,-0.073514,-0.28857,-0.79625,0.47455,-0.84078,-0.12904,0.23042,0.061389,0.27252,0.18647,0.051404,-0.51341,0.69157,-0.23441,0.34771,-0.085229,-0.85405,-0.90597,0.80218,0.031954,-0.86906,-0.92958,0.022214,-0.62987,0.27741,-0.15143,-0.71433
0.19591,-0.85641,-0.68858,-0.15562,-0.61655,0.14068,-0.47351,-0.32473,0.47136,0.29357,0.88473,-0.65885,-0.65073,0.91613,-0.26203,0.20913,-0.73635,-0.67033,0.94032,0.60057,-0.89285,-0.78767,-0.89623,-0.94539,-0.96445,-0.22599,0.71369,-0.77937,-0.60569,0.62393
-0.68762,-0.51507,-0.60628,0.58156,-0.21437,-0.22791,-0.1051,0.063653,0.56282,0.77694,-0.65798,0.024214,-0.74714,-0.52623,-0.031193,-0.66845,-0.96998,0.95553,-0.34065,0.62291,0.33952,0.99774,-0.060328,-0.96412,-0.59325,-0.75515,0.93831,0.85237,0.54748,0.0041996
0.76212,0.69412,-0.92939,-0.51524,0.71403,-0.28984,0.93093,-0.25805,0.65386,-0.76038,0.70971,-0.36829,0.77303,0.61521,-0.014033,0.66378,-0.24814,0.77727,0.28787,-0.34975,0.46572,0.64411,0.81409,-0.11268,0.12691,-0.57488,0.16392,0.2523,-0.39889,0.69995
0.1125,-0.67603,-0.64453,0.42912,0.40282,0.24769,0.9999,0.26066,0.35523,-0.60965,-0.63189,0.18509,0.30138,-0.84389,-0.45014,0.016832,0.79314,0.51923,0.69598,0.32324,0.15803,0.49373,0.37428,-0.37101,0.47946,-0.6288,-0.12507,-0.68365,-0.79761,-0.72838
0.25317,0.1661,-0.98579,0.59514,0.017383,-0.47246,0.06542,0.27036,0.64556,-0.71232,0.042859,0.80451,-0.16733,-0.84783,0.65502,0.84279,-0.31269,0.1753,0.32834,-0.39812,-0.014059,0.51979,-0.78985,0.27933,-0.52499,0.18908,-0.057287,-0.80699,-0.042542,0.95585
-0.76406,0.13073,-0.55676,-0.81403,-0.55015,0.7922,0.93619,0.82828,-0.44184,0.10269,0.21605,0.2099,-0.42974,0.28138,0.31958,0.32348,-0.43848,0.53742,0.91489,0.92598,-0.11337,-0.35935,0.68821,0.035048,0.84068,-0.83862,0.35055,-0.60848,0.1756,-0.4844
-0.83657,0.98519,-0.097901,0.35202,0.52113,0.51941,0.17451,-0.16314,0.28463,0.7679,-0.20706,0.55892,0.047516,-0.48863,0.68953,0.42494,0.75231,0.135,0.45955,-0.59866,0.1513,-0.94385,-0.07591,-0.85758,0.17674,-0.85625,-0.573,-0.39818,-0.29806,0.54553
-0.61088,0.18294,-0.069838,0.25856,0.032542,0.42586,0.72163,0.0022867,0.46309,-0.18818,-0.64259,-0.68774,0.41711,-0.44089,0.78736,0.079913,-0.5319,-0.77745,-0.18136,0.80327,0.65652,0.37198,0.44695,0.50752,0.54186,-0.43226,-0.25344,-0.87784,-0.45184,-0.24947
-0.19727,0.9118,0.32901,0.24654,0.997,0.33662,0.67256,0.014122,0.57454,-0.79614,-0.93403,0.80647,0.51947,-0.73691,0.66935,-0.37017,0.43781,0.20239,-0.21984,-0.66624,0.34763,-0.37069,-0.028359,-0.17501,0.042616,-0.69772,-0.47997,0.18054,0.71048,0.15511
-0.21488,0.45141,-0.33388,0.62191,-0.024332,-0.48184,-0.61566,0.15028,0.10872,-0.27717,-0.71527,-0.59194,-0.16837,-0.44315,-0.17691,0.75052,0.69616,-0.0019728,-0.5144,-0.74068,-0.1057,-0.78713,-0.26468,0.93286,0.5984,-0.80691,-0.08757,0.64622,0.14972,0.70634
-0.29916,-0.070755,0.74583,0.87165,-0.56052,-0.11668,0.92677,0.89721,-0.4858,0.58841,-0.5906,0.076807,-0.33206,0.81179,0.26973,-0.94589,-0.89078,-0.32031,-0.15485,0.04903,0.24925,-0.90846,-0.61829,-0.21212,-0.040292,0.80502,-0.69194,0.028767,0.10495,-0.33393
0.54355,-0.47289,-0.79533,0.15333,-0.014403,-0.67475,-0.68894,-0.014024,0.38504,-0.076403,0.4455,-0.33556,0.85882,-0.94089,-0.27229,-0.10288,-0.0061955,0.32183,-0.030607,-0.8565,-0.71029,-0.11293,-0.79024,0.95238,0.97425,0.19357,0.26731,-0.54282,-0.1283,0.44821
0.69609,-0.36606,-0.55095,-0.89464,0.66816,0.64402,0.85367,-0.65238,0.46701,-0.0064109,0.2247,0.63203,-0.40463,-0.71168,0.63802,0.8369,0.59368,-0.80026,0.099435,0.25169,-0.04993,0.097161,0.51561,0.18552,0.017635,0.86723,-0.34225,0.55711,-0.4042,0.0031445
0.73902,0.99872,-0.4076,0.86704,0.10082,-0.16142,0.39436,0.78335,0.69128,0.11797,-0.041421,-0.5595,0.86985,0.68055,0.61742,0.049109,-0.85459,-0.3482,0.82163,0.096727,-0.59997,-0.51363,-0.85966,-0.97982,0.6241,-0.28299,0.078946,-0.051661,-0.14728,-0.99066
0.36372,-0.16604,-0.32156,0.59338,-0.13996,-0.99302,-0.40337,-0.99272,-0.50291,0.70482,0.024962,0.50163,-0.87351,0.71803,-0.8396,-0.55599,-0.38981,0.72402,-0.46207,0.50347,0.95691,-0.073542,-0.34265,0.10578,0.38778,0.78894,0.71211,-0.39892,0.22914,0.63624
-0.84948,0.80287,-0.080578,0.7892,-0.55651,0.92491,-0.2824,-0.78543,0.74096,0.88444,-0.98973,-0.54748,0.89911,0.65257,-0.26784,-0.9455,0.84555,-0.85427,-0.58779,0.48153,-0.36178,0.42942,-0.74034,0.68005,-0.67907,-0.63757,0.60047,0.14234,-0.89862,0.6208
-0.32203,-0.53263,-0.95426,-0.2028,-0.0092246,-0.62943,-0.72468,0.14386,-0.10399,0.54941,-0.29963,-0.096996,0.60459,0.2724,0.41301,0.55943,0.1589,-0.64913,0.93888,-0.041691,0.072296,-0.39874,-0.94212,-0.67926,0.76383,0.1874,0.21893,-0.58813,-0.86339,0.41177
-0.47443,0.42257,-0.20493,-0.49304,-0.82286,0.33092,-0.44791,-0.17314,-0.68849,-0.0096901,0.65369,0.69446,-0.24921,-0.45432,0.932,0.93997,0.6467,0.50453,-0.93353,-0.89745,0.63923,-0.82694,0.40659,-0.86874,-0.56561,0.29771,0.50863,-0.012828,0.96289,0.2474
-0.67103,-0.28085,0.036174,-0.62775,-0.9396,0.55575,0.41706,-0.68295,-0.16819,0.89935,-0.48421,-0.37083,0.68406,0.03913,0.021446,-0.60928,-0.53317,0.78111,-0.35462,-0.2996,-0.93531,-0.81732,0.52418,0.33035,-0.36979,-0.10181,0.46078,0.41294,0.21226,0.89381
-0.64452,-0.68681,-0.75838,-0.41809,-0.70794,-0.89809,-0.54786,0.71781,0.82864,0.97632,0.27339,-0.14634,0.247,-0.58264,-0.7413,0.85512,-0.75751,-0.37314,0.21473,0.67135,0.38589,0.13257,0.1422,0.41149,-0.70031,-0.66247,-0.49469,0.26599,-0.95195,0.62929
-0.0019236,0.55196,0.058515,-0.72799,0.031089,-0.64675,-0.12001,0.11209,-0.15815,-0.25024,0.36032,0.91732,0.76448,-0.56725,-0.4995,-0.50846,0.88207,0.27618,-0.37301,-0.25522,-0.92967,0.5854,0.98038,0.8265,0.7784,-0.80222,0.29799,-0.94306,0.11784,-0.38029
0.1376,-0.057239,-0.71029,0.51043,0.5144,0.53105,-0.46998,-0.53562,-0.46307,0.95383,-0.48361,-0.094694,-0.07404,-0.60532,-0.60649,0.097718,0.99389,0.20073,-0.070159,-0.87188,0.52434,0.43665,0.17404,0.089181,0.56172,-0.35696,-0.62929,-0.28383,-0.32552,0.56234
0.21352,0.10719,-0.38056,0.50581,0.74552,-0.62373,0.47419,-0.098601,0.086026,0.20071,-0.87423,-0.068964,0.36237,-0.58789,-0.52116,0.13296,-0.41056,-0.64536,-0.89173,-0.64154,0.11973,-0.77762,-0.39714,-0.98731,0.39281,-0.64942,0.308,0.56678,0.0045722,-0.12278
0.46007,-0.18531,0.35512,0.26012,0.3963,-0.86393,-0.026971,-0.97767,-0.90364,-0.97402,0.63594,-0.98954,-0.46826,0.31572,0.71484,-0.04078,-0.43745,0.055705,-0.29434,-0.13141,0.64763,-0.082975,0.16954,-0.55359,0.52408,-0.70481,0.8007,-0.42179,-0.62047,0.4577
-0.48131,-0.82659,-0.9896,-0.49813,-0.01241,-0.83553,0.55888,0.24175,0.47431,0.12566,0.22142,0.76066,0.69702,0.166,-0.72978,-0.54843,0.44662,-0.95942,0.087132,0.53254,0.86961,-0.43254,-0.66865,-0.98599,-0.90048,0.052046,-0.33964,0.042358,0.029215,-0.40001
-0.10621,0.47607,-0.93653,0.82251,0.42944,0.21052,-0.65721,0.5295,0.63746,0.37454,-0.68059,-0.57066,0.35107,0.92395,0.0049955,0.92756,0.77174,0.24621,-0.93858,0.29823,-0.76494,-0.00077141,-0.52616,-0.56652,-0.45057,0.78093,0.59522,-0.43365,-0.094151,0.74356
0.31565,-0.62795,-0.98508,-0.53477,0.63764,-0.40044,-0.97078,0.93203,-0.59691,0.89754,-0.85348,0.0092061,0.30326,0.99406,-0.4919,-0.13293,0.0067847,-0.51356,-0.52888,0.95946,0.81642,0.67649,-0.82759,-0.92531,-0.15871,-0.34433,0.07301,0.84199,-0.39235,-0.90804
0.38313,0.82209,-0.6699,0.9676,-0.53417,-0.20158,-0.69324,-0.63649,0.70354,-0.27632,-0.74691,-0.28277,-0.35234,0.15247,-0.45606,-0.34673,-0.2163,-0.82126,-0.8299,0.27349,-0.98494,-0.89746,0.32329,0.75345,0.0083063,-0.90693,0.064533,-0.46672,-0.51726,-0.038577
0.88375,-0.12041,-0.79345,0.39218,0.67214,-0.7941,-0.052219,0.15331,0.45141,0.21485,-0.010898,0.81703,-0.4837,-0.098657,0.77653,-0.45581,0.78704,-0.74101,0.27641,0.20365,0.96415,0.50569,0.76342,-0.080101,-0.48317,0.90546,-0.65469,0.71468,-0.75928,-0.54113
-0.38789,-0.57259,-0.59283,-0.89169,0.1855,0.42254,-0.88683,0.55399,-0.058017,0.07928,0.69565,-0.93615,0.02674,-0.19208,0.83296,-0.7176,-0.92644,0.021749,-0.24923,-0.6922,-0.90088,-0.022845,0.9768,-0.50296,0.92804,0.83386,0.40954,-0.1912,-0.50995,-0.054115
0.57792,-0.75258,-0.80767,0.33721,-0.28926,-0.63053,0.5331,-0.3544,-0.21149,0.78609,0.0044857,-0.82948,0.78679,0.63338,-0.23679,-0.35064,-0.47854,-0.10363,0.43747,0.040448,-0.68479,0.18954,0.72415,-0.38025,-0.84278,-0.32191,-0.91286,0.84661,-0.59259,0.17249
-0.14339,-0.82388,0.011022,-0.1562,0.32548,0.98281,0.54663,-0.99788,-0.63186,-0.30607,0.83675,-0.084449,-0.75891,-0.22958,-0.019735,0.49241,0.96873,0.94399,0.7645,-0.16133,0.79358,-0.27669,-0.63169,0.33033,0.90557,0.29577,0.12207,0.86932,0.51471,0.9437
0.82646,-0.22409,0.83367,0.42713,-0.4691,0.16905,0.21205,0.03008,0.50463,-0.79707,0.50168,0.22986,0.88818,0.19729,-0.11654,0.61544,-0.37488,0.6899,0.85431,0.6808,0.20578,0.30235,0.56845,-0.61886,0.24245,0.028725,0.59794,0.347,0.67008,0.91802
0.51678,0.35414,-0.38026,0.76666,-0.47799,0.35872,-0.4249,0.042024,-0.90787,0.75161,0.41691,-0.30964,0.88752,-0.9436,0.73043,0.90492,-0.53166,0.92464,-0.82247,0.29208,0.81418,-0.13372,-0.68283,0.96259,-0.83998,0.043414,0.069982,0.75107,0.21043,0.037675
-0.67948,0.52475,0.4999,0.79917,0.48829,-0.57406,-0.88582,-0.51209,-0.83608,0.1526,-0.27744,0.60015,-0.41277,0.69931,-0.9307,-0.3004,0.15893,0.79268,-0.036154,-0.36867,0.79299,-0.99782,-0.87485,0.059584,-0.72993,0.10663,0.30409,-0.92208,-0.51708,-0.64304
0.31227,0.8888,-0.9188,0.85973,0.365,-0.25203,0.5198,-0.19054,-0.92737,-0.30311,0.52954,0.63622,-0.85687,0.67172,-0.91043,-0.78296,0.56814,-0.84826,-0.12793,-0.78727,-0.23569,0.31792,-0.15173,-0.39487,0.99097,0.62427,-0.46671,-0.26611,-0.32143,0.9192
-0.0065063,0.86337,0.20963,-0.69259,-0.91666,-0.98944,0.87812,-0.83662,-0.10804,-0.19817,0.68802,-0.4991,0.12468,-0.37666,0.3338,-0.41338,-0.92933,-0.011976,0.69981,-0.01458,-0.89148,0.49825,0.028592,-0.4062,0.8477,-0.99329,-0.97868,-0.66107,0.68831,-0.22476
-0.17422,-0.62083,0.86946,-0.77358,0.11357,0.52181,0.46884,-0.45434,0.024439,0.69886,-0.49092,-0.4971,-0.48636,-0.78436,0.36383,0.21036,0.1809,0.53087,-0.02528,0.13771,0.56828,0.090672,0.3038,0.76716,-0.73956,0.54426,0.73226,0.30855,-0.69304,0.90059
0.23301,0.53079,-0.5946,0.45374,0.022165,-0.19833,-0.68427,0.7433,-0.47368,-0.068318,0.80251,-0.60224,0.68975,-0.59354,0.18142,0.39726,-0.34259,-0.90277,-0.82624,0.42147,0.74377,-0.877,0.77783,-0.37301,0.11744,-0.37643,0.033304,0.11367,0.50646,0.76392
-0.097881,-0.67709,-0.42915,0.99662,0.72055,0.14414,0.67448,-0.5201,0.92679,-0.33521,-0.51779,-0.69334,-0.37962,-0.87682,-0.8602,0.79158,-0.53148,0.3317,0.7107,-0.74053,-0.56555,-0.26867,0.15853,0.74693,-0.1537,-0.86265,-0.00048714,0.64771,0.10069,0.84649
0.30249,0.10642,-0.15417,-0.85074,-0.22466,-0.20074,-0.00014824,-0.75091,0.71878,-0.35991,0.29059,0.36385,-0.38393,-0.86643,-0.23503,-0.024031,-0.86095,-0.32615,0.76037,-0.94914,0.24488,-0.37155,0.673,0.89338,-0.26837,-0.55278,0.18494,0.95608,-0.61167,0.2947
-0.29188,-0.68971,0.75142,0.95223,-0.94959,-0.30773,0.94662,0.12393,-0.35642,0.93744,0.10576,-0.74281,0.80921,-0.8018,0.24504,0.23832,0.81546,-0.41813,-0.54421,0.763,0.92735,-0.75299,-0.57535,0.2823,-0.0016459,-0.77543,0.6462,0.2715,-0.4268,-0.30224
0.51118,-0.29656,-0.49982,0.70034,-0.15454,0.20633,-0.89545,-0.68961,0.96601,0.15159,-0.29252,-0.40315,-0.16377,0.87328,0.44477,-0.25721,0.048456,0.71578,-0.69768,0.70465,0.25751,0.84836,-0.45604,0.2002,-0.61361,0.45975,-0.10609,0.59354,-0.88278,-0.35386
-0.87506,0.42089,0.26441,-0.57475,-0.14148,-0.4937,0.11841,0.56629,-0.47129,0.86971,0.56609,-0.80605,-0.63926,0.20664,0.28783,-0.21907,0.098278,0.38603,0.14786,0.2763,0.20938,-0.63582,-0.22458,0.0022646,-0.34886,-0.065547,0.01342,0.025263,0.81305,0.87952
0.52706,0.10248,-0.9973,-0.94812,0.92714,0.58925,-0.28978,-0.98765,0.39446,-0.13281,0.88375,0.86105,0.34135,0.72607,0.32854,0.84366,-0.71113,0.85768,0.48797,-0.73516,-0.83143,-0.39629,-0.49936,0.64856,0.024391,0.13214,0.85818,-0.9171,0.48573,-0.83177
0.14839,0.34131,0.5969,-0.71319,-0.6445,-0.78235,0.19533,0.065277,0.97972,-0.74952,0.8252,-0.32381,-0.78864,-0.44332,0.1916,-0.038787,0.77816,0.031697,0.68458,-0.34908,0.563,-0.22974,0.8873,0.73724,-0.17268,0.084266,-0.14932,-0.49105,-0.5234,-0.181
0.27717,0.75795,0.63011,0.54285,0.010999,-0.16242,0.7906,-0.061927,-0.52247,-0.58131,0.87468,-0.19474,0.72087,0.027186,-0.73847,0.038125,0.10001,0.58639,0.81726,0.19378,0.32903,-0.34428,0.68138,0.3529,0.94242,0.85701,-0.21451,-0.50546,0.78943,-0.31954
0.93563,0.53119,-0.024925,0.17466,0.22244,0.31545,0.77609,0.57892,-0.34592,-0.88419,0.061249,-0.32897,0.35462,0.00032693,-0.10166,0.33552,-0.66359,-0.30649,-0.092431,-0.45922,0.4047,0.88687,0.54893,-0.33633,-0.64789,0.17373,-0.76368,0.60845,-0.63898,0.2131
0.28763,-0.43187,-0.62069,-0.97126,-0.30744,-0.0054755,0.43192,0.65532,-0.98358,-0.34056,-0.37021,0.95649,-0.65327,0.86681,0.36488,0.0077887,0.98237,0.65351,-0.12533,0.42754,0.15027,-0.57654,-0.81785,0.036346,-0.84092,-0.034203,-0.84993,0.92645,0.59121,0.14503
0.084354,-0.52025,-0.19409,-0.23329,-0.80787,-0.30144,0.74847,0.91752,0.82044,0.66606,0.93148,-0.82631,-0.021181,0.32013,0.45979,-0.53123,-0.46716,0.67249,-0.93392,-0.088147,-0.58657,0.69616,-0.6445,-0.18827,-0.58545,0.1193,-0.62472,0.11011,0.32551,0.94663
-0.92743,0.21898,-0.8442,0.079183,-0.39243,0.98605,0.2761,-0.58888,-0.78246,-0.87342,-0.16361,0.74274,-0.42753,0.45974,-0.029296,-0.45356,0.95226,0.3414,0.43964,-0.16525,-0.26843,0.3389,-0.5648,-0.40579,0.0040214,-0.60225,-0.49918,-0.63036,0.78536,-0.4129
0.10903,-0.89173,0.54547,0.013535,0.8434,0.62614,0.95565,-0.96733,0.24813,0.67015,-0.91805,0.3019,0.62597,0.57885,-0.91509,-0.46774,0.88702,-0.81773,-0.44394,-0.70483,0.71835,-0.55576,0.37245,-0.71413,-0.47006,0.53781,0.89301,0.34294,-0.70692,0.16118
0.059,0.64038,0.35889,-0.88508,-0.97651,0.2589,-0.30858,-0.18649,0.69006,-0.73444,0.52259,-0.53383,-0.84856,0.61176,-0.13795,0.6249,0.052435,-0.40415,-0.68234,0.78507,0.81143,0.61352,-0.87869,0.052072,0.089114,-0.19087,-0.89894,-0.90101,-0.73014,0.29256
-0.5654,-0.11167,0.52538,-0.89672,-0.59401,-0.91044,-0.37793,-0.74185,0.30181,0.67908,-0.12373,-0.36279,0.12439,-0.33334,-0.0028422,0.13746,-0.20533,-0.16012,0.9719,-0.93548,-0.80679,0.84467,0.19371,-0.79652,-0.89206,0.615,0.87256,0.41473,0.40044,-0.76842
-0.90038,0.8503,-0.76368,0.39146,-0.6453,0.97309,-0.38472,0.91753,0.99264,-0.63606,-0.71378,-0.23968,0.127,-0.78254,-0.88523,-0.38034,0.96254,0.16899,-0.17898,0.39531,-0.24704,0.58093,0.35806,0.65765,-0.47319,0.062326,-0.71916,0.11446,0.10402,-0.13445
0.43369,0.62091,0.23293,-0.52465,-0.38228,-0.698,-0.046153,-0.19633,-0.76159,0.32696,0.2725,0.98795,0.16078,0.35533,-0.18748,0.8541,-0.67204,0.55836,0.95047,-0.25878,0.54692,0.17834,-0.26803,0.98062,-0.90561,0.47659,0.12872,-0.28425,0.19036,0.16072
-0.86399,0.28364,-0.79965,0.20046,-0.62128,0.97742,0.38513,-0.46785,-0.89057,0.50018,0.84188,0.40527,-0.44964,-0.89471,0.10105,-0.59039,0.19627,-0.54211,0.61123,-0.2583,0.67103,-0.52225,0.898,-0.39958,0.64183,0.048402,-0.6866,0.41106,0.41111,-0.69676
-0.14004,0.86745,-0.17522,-0.30124,-0.77921,-0.76014,-0.50763,-0.40682,0.027313,0.32588,-0.54719,0.3996,0.061222,0.38085,-0.76463,0.11655,0.45006,-0.95289,0.89724,0.62936,0.41104,-0.59809,-0.32307,0.54529,0.38228,0.36221,0.74731,0.22304,-0.50751,-0.54495
-0.70376,0.14982,0.096519,0.69756,0.89904,0.4746,0.3341,0.18435,-0.76032,-0.57026,-0.7656,0.35946,0.09129,0.35592,0.72908,0.75643,0.44045,0.89904,-0.073317,0.8064,0.55943,-0.74095,0.59709,0.62476,-0.77853,0.72672,-0.72574,0.095448,0.012193,-0.58884
0.072895,-0.65737,-0.55585,0.56407,0.36163,0.76335,0.89898,-0.26928,0.27581,-0.00033874,-0.93301,-0.26044,0.088177,0.60034,0.70735,0.83106,-0.30968,0.39979,0.072162,-0.15725,-0.32574,-0.65906,-0.75459,-0.44031,-0.55827,-0.29931,0.083585,0.41715,0.84958,-0.2784
-0.090722,0.85831,-0.12015,0.68898,0.63964,0.75778,-0.17465,-0.83994,-0.80179,0.61801,0.51362,0.86176,-0.40334,0.57262,0.39493,-0.75018,0.065471,0.31763,-0.98535,-0.26392,0.63606,-0.55676,-0.034763,-0.72757,0.77513,-0.8723,-0.00864,0.046193,-0.26514,0.52373
0.19004,-0.96373,-0.049476,-0.074553,-0.11786,0.6371,0.34074,-0.50064,0.28693,-0.42439,0.5716,0.91365,-0.83239,-0.28984,0.15111,0.645,0.18715,0.88676,-0.5314,-0.60801,0.49675,-0.75529,-0.026267,-0.74605,-0.24715,-0.059241,-0.031166,0.48937,-0.78659,-0.64414
-0.4185,-0.92116,-0.70903,0.86218,0.70653,0.81066,-0.13774,-0.023463,0.024182,0.12733,-0.23842,0.21398,-0.97812,0.71259,0.78864,0.40507,0.97232,-0.48311,-0.73646,-0.14322,-0.37953,-0.58372,-0.86518,0.77044,-0.45067,-0.54372,0.96148,-0.29813,0.76207,0.2454
0.092024,0.43185,-0.99888,-0.28686,-0.29138,-0.013534,-0.88936,-0.8802,0.25273,-0.64866,0.10453,0.87738,-0.81186,0.47408,-0.86508,-0.11178,-0.71607,0.2097,-0.9997,-0.59595,0.97955,0.059175,0.24517,-0.23751,-0.26235,-0.57021,-0.067806,0.7245,0.032809,0.32148
-0.91472,0.62699,-0.24079,-0.25951,0.19274,0.32801,-0.77797,-0.067479,0.041896,-0.87129,0.68004,-0.71396,0.44705,-0.36503,-0.59387,0.56702,-0.4244,0.9815,0.8951,-0.65826,-0.3908,0.54533,0.75462,0.45366,-0.6276,0.71026,0.94582,-0.21192,-0.62233,-0.95087
0.58648,0.18276,-0.86106,0.2807,0.69067,0.25998,0.95618,-0.68967,0.94552,0.57729,0.37693,-0.013376,-0.20169,0.087134,-0.77043,0.1219,0.029919,0.13927,-0.73937,0.57769,0.72786,0.8968,0.8239,0.99664,-0.45355,0.57612,0.62588,-0.94734,-0.57194,0.20735
0.39578,-0.21063,-0.45484,0.080447,0.96075,0.064125,0.94386,-0.7818,0.4009,0.1642,0.51165,-0.2495,0.42708,-0.13867,-0.21241,-0.41101,-0.048002,0.54895,-0.19914,-0.60421,0.12958,-0.82647,-0.18199,0.90744,-0.47237,-0.69742,-0.20607,-0.76318,0.18272,0.55667
0.94468,-0.22496,0.64585,-0.98817,0.59216,-0.56283,-0.5109,0.88353,0.41038,0.80348,-0.69602,-0.2066,0.53719,0.36479,0.37724,0.99244,-0.0131,0.91541,0.11248,-0.058551,0.11455,-0.16924,-0.50807,0.72375,-0.97441,-0.44472,-0.54541,-0.04773,-0.93516,0.74344
-0.84635,0.076503,0.13306,-0.092774,-0.36052,-0.061813,-0.37959,-0.68939,-0.65398,-0.41641,-0.42265,-0.69609,0.76733,-0.53873,-0.58498,0.92863,-0.2077,0.55454,0.017139,0.61386,-0.12603,0.26148,-0.91916,-0.18398,-0.46287,-0.49478,-0.12618,-0.65831,0.30042,-0.94976
-0.77789,-0.96366,0.058971,-0.56371,-0.74331,0.89278,-0.27055,-0.96173,0.98666,0.28126,0.48651,-0.49988,-0.33914,-0.858,-0.43216,0.19373,-0.4358,0.27425,0.202,0.43296,-0.57844,0.78517,-0.50721,0.04835,-0.96717,-0.62282,0.7407,0.89548,0.875,-0.077659
0.59802,0.35728,0.25344,0.1777,0.05032,-0.88858,-0.94796,0.47816,0.7826,0.74192,0.065134,-0.95113,-0.016429,-0.60829,0.30365,0.3517,-0.70213,0.61878,0.80655,0.29887,0.010962,0.10652,-0.68405,0.35792,0.34736,0.16941,-0.8419,0.63891,0.64303,-0.66297
-0.21586,-0.39855,-0.78909,-0.32875,-0.071285,0.45994,-0.98386,0.10111,-0.062567,0.86511,-0.77988,-0.36114,-0.65804,-0.56531,0.25347,-0.48637,0.34712,0.42863,0.42876,0.22749,0.94314,0.27766,-0.12007,0.17484,-0.63705,-0.11924,0.62164,0.33465,0.83112,0.83082
0.56162,-0.48122,0.46261,0.32247,0.016876,-0.63064,-0.68442,-0.93422,-0.087422,-0.13876,-0.31307,-0.53028,0.71225,-0.9783,-0.68276,-0.39569,-0.25748,0.24033,-0.85367,-0.88543,0.66992,-0.48095,-0.51441,-0.20493,-0.5931,-0.74182,0.73659,-0.96673,0.53675,-0.90962
0.89334,0.91269,-0.10537,-0.47716,0.92442,-0.13385,0.83068,0.29725,0.43278,-0.94441,-0.1839,-0.95063,0.040439,0.5437,0.77971,-0.57651,-0.3744,0.98213,-0.081407,-0.098712,0.21301,-0.35189,0.022699,0.45625,0.77596,0.48547,0.2249,-0.11372,-0.52166,-0.37285
-0.5664,0.38575,0.8133,0.82338,0.31574,-0.16514,-0.83731,-0.40718,0.10462,0.51125,0.24231,0.88431,0.71401,0.0036394,0.19315,0.36738,0.53936,-0.92389,-0.057083,0.23918,-0.33718,-0.25517,0.96815,-0.011698,-0.54906,0.17056,-0.36497,-0.28551,-0.65887,-0.46164
-0.4308,0.8437,0.93631,0.6791,-0.71803,0.86613,-0.26572,-0.55388,0.85657,0.16665,0.024786,0.75461,-0.84885,0.17462,0.53137,0.24363,0.27402,-0.62956,0.48825,0.67401,-0.64666,0.1235,-0.56571,0.69202,0.42718,0.55237,0.54558,0.36496,0.75549,0.39341
-0.47841,0.85073,-0.47857,-0.2528,0.26392,-0.75047,0.89327,0.26394,0.44161,-0.89645,-0.48772,0.095593,0.8636,-0.12649,0.49229,-0.84663,0.16868,-0.94001,-0.76255,-0.68109,0.39727,-0.92399,-0.98499,-0.6837,-0.28085,-0.040431,0.17056,-0.39591,0.086385,-0.97111
0.85635,-0.23792,0.22354,0.77213,-0.29105,0.1472,-0.376,-0.7379,0.74701,0.40213,0.46608,-0.4143,-0.4482,0.0046126,-0.93495,-0.5378,0.83974,0.73709,0.56664,0.94016,0.48791,0.7518,0.54385,0.45964,-0.48669,0.79293,-0.24565,0.081652,0.90484,0.29189
0.042433,0.27056,-0.94963,0.94651,-0.88277,0.3487,-0.87648,-0.51986,0.050385,-0.22572,-0.71702,0.99652,-0.35936,-0.61164,-0.10622,-0.16153,0.0096346,-0.91615,-0.22005,0.13287,0.92105,0.35399,-0.94984,-0.81714,-0.13903,-0.76707,0.45977,-0.55707,0.091741,0.45352
0.61699,-0.73751,0.69457,0.47853,0.55948,-0.93731,0.75077,-0.76932,-0.56324,-0.27399,0.75882,-0.15507,-0.11127,-0.53458,-0.58986,0.4917,0.46077,-0.17188,-0.82759,-0.34144,0.88869,0.75067,-0.090306,0.26341,0.14784,0.14658,-0.5338,0.92199,0.86,-0.16194
-0.34375,-0.31644,0.29523,0.09376,-0.70891,-0.50796,-0.14777,-0.88419,-0.80222,0.68108,0.44365,0.8102,0.58194,-0.55994,0.86799,-0.86441,-0.80381,-0.75789,0.50317,0.57077,-0.72436,-0.60593,0.88193,-0.31717,-0.7181,0.10248,0.20315,0.59401,0.39169,-0.95427
-0.99366,-0.019189,0.57396,0.59015,-0.40945,0.22652,-0.36453,-0.93146,-0.69285,-0.35789,-0.06241,0.27245,-0.34779,0.19553,0.093907,-0.54664,-0.012668,-0.4841,0.76301,0.30816,-0.32539,-0.11112,0.95917,-0.32376,0.58617,0.064424,-0.09111,0.95508,-0.88128,-0.1622
-0.13506,-0.73069,-0.46224,-0.55052,-0.238,0.1145,0.59685,-0.53422,-0.46667,-0.29191,-0.90071,-0.2919,0.46791,-0.48609,-0.2586,0.10556,-0.61511,-0.46384,-0.93829,0.093102,-0.78239,-0.24581,0.28739,0.64644,-0.084855,-0.44357,0.96004,0.17465,-0.71838,0.5782
-0.48537,0.43295,-0.0064835,0.8066,0.54003,-0.86342,0.45166,-0.39419,-0.8368,-0.69597,-0.85818,-0.59899,-0.85576,0.63358,-0.33427,0.78458,0.40353,0.49483,-0.17447,-0.16865,-0.16326,-0.93313,-0.4979,-0.70687,-0.47529,0.70138,-0.52763,-0.34564,0.11811,0.77981
0.39747,0.28405,-0.48994,0.28512,0.7215,0.29996,-0.64085,-0.14496,0.17532,0.32999,-0.92992,0.83515,-0.11495,-0.21619,-0.25981,-0.96976,-0.90158,0.42181,-0.48303,0.93381,0.50871,-0.80297,0.095699,-0.86719,-0.69202,-0.56543,0.23265,0.96509,0.71629,-0.53085
-0.39124,-0.84598,0.66837,-0.010598,-0.11577,-0.63528,-0.69662,0.47372,-0.87329,0.52568,0.76159,-0.73069,-0.95852,-0.31929,-0.72269,0.88855,0.92603,-0.20761,0.17911,-0.42206,-0.203,-0.90492,0.24186,0.47943,0.51677,-0.53182,-0.27309,-0.32462,-0.88731,0.087992
0.91458,0.87009,0.21743,-0.97712,-0.056431,-0.14927,-0.21713,-0.54433,0.11822,-0.46823,0.98059,0.68607,-0.84117,-0.52246,-0.24093,0.99948,-0.1798,0.020389,0.62123,-0.94254,-0.59835,0.77143,-0.49395,0.13117,0.041765,-0.62961,-0.70094,0.54869,-0.20906,-0.48775
0.0012358,-0.21156,0.77658,0.72302,0.49373,0.13954,-0.1755,-0.73135,-0.78168,-0.35499,-0.022944,0.33051,-0.62491,0.75287,0.54878,0.2486,0.15919,0.79264,0.3005,0.49035,0.99065,-0.3682,0.66861,-0.66759,0.053428,0.71613,0.050017,-0.1344,-0.20541,0.11548
-0.551,0.89993,0.066569,-0.14914,-0.38706,-0.97666,0.26757,-0.12015,-0.8811,0.74987,-0.0043435,-0.95719,-0.91769,0.078737,0.50585,-0.66319,-0.088967,-0.45204,0.44536,-0.81305,0.61238,-0.38394,0.93537,0.95943,-0.071903,-0.96761,-0.55857,-0.32611,0.58936,0.67903
-0.96642,0.80407,0.11365,0.83963,0.59117,-0.2974,0.16655,0.031011,-0.5331,-0.35688,0.047507,-0.60478,0.63861,-0.8406,-0.35319,-0.060785,-0.7282,0.26643,-0.76166,0.37811,-0.089666,-0.77446,-0.050438,-0.042229,0.8824,-0.24491,0.68614,0.94444,0.72266,0.69707
0.076764,-0.94023,-0.52672,-0.076907,0.85198,0.991,-0.89141,-0.010586,0.49448,0.59822,-0.99091,-0.5966,-0.69286,-0.79444,-0.19655,-0.32465,-0.40661,0.26252,0.35451,-0.42015,0.32066,-0.78396,-0.41168,0.017246,0.94007,-0.56391,0.86481,0.27261,0.70317,-0.25289
0.25402,0.67026,-0.64808,-0.80528,-0.36945,-0.70556,0.63798,-0.86987,0.51915,-0.4626,-0.83468,0.91962,-0.11491,0.40308,0.93725,0.31346,-0.32914,0.85057,-0.50571,-0.27528,0.038701,0.20943,0.65355,0.43872,0.83569,0.26633,-0.48138,0.67655,-0.13816,0.34109
-0.027505,0.038638,0.939,-0.29631,-0.38781,0.80127,0.33318,0.85821,0.61628,-0.15394,-0.77847,0.67722,-0.58442,0.73708,0.41849,0.56928,0.73499,0.95666,-0.099312,-0.79956,0.39858,-0.60667,-0.12814,-0.039552,-0.037862,-0.72796,-0.17777,0.11371,0.6994,0.40125
0.70288,-0.34276,0.69903,0.33103,0.10273,-0.82102,-0.44594,-0.47822,0.52244,-0.30721,-0.5843,-0.38822,-0.51612,0.64759,-0.43837,0.0207,0.32982,-0.14738,0.86658,-0.71412,-0.7797,-0.5167,0.36685,-0.265,0.22082,-0.97003,0.34749,0.84652,-0.31365,0.87919
0.78545,0.70236,0.34022,-0.17889,-0.99557,0.61339,-0.77164,-0.14538,-0.59886,0.33966,-0.64689,-0.76603,-0.058764,0.07149,-0.46651,0.30071,0.45919,-0.90191,-0.51643,0.19311,-0.33804,0.01415,-0.98648,0.31814,-0.073965,-0.32962,-0.45176,-0.53098,0.22014,-0.42023
-0.65757,0.99248,0.42466,0.43955,0.4388,-0.097777,0.61845,-0.67402,-0.57615,0.53672,0.15112,-0.51676,0.23904,-0.30476,0.54642,-0.80781,0.16582,0.4738,0.66104,-0.091925,-0.62637,-0.83498,-0.27448,-0.097174,0.99074,0.87162,0.64665,0.83157,-0.11735,0.6394
0.36649,-0.34573,-0.4504,-0.41682,0.057238,0.46218,-0.72668,0.57333,0.67191,-0.55773,0.40405,-0.27135,-0.010377,0.47537,0.79334,0.55148,0.56638,-0.53244,-0.10343,-0.93381,0.39477,0.65482,-0.23886,0.23091,0.59417,0.44066,0.49115,-0.53859,-0.54812,-0.23817
-0.65841,-0.28463,0.80174,-0.11349,0.11513,-0.75314,0.89214,0.03522,-0.98054,-0.78882,0.039138,0.14556,-0.0067956,-0.57124,-0.54963,-0.39657,0.093488,-0.65989,0.49011,-0.69556,0.014859,0.13322,-0.26565,-0.3356,-0.69505,-0.098657,0.74266,-0.14013,0.59427,-0.61138
0.039761,-0.99873,-0.84782,0.40599,-0.98663,-0.91841,-0.18538,-0.75577,-0.76019,0.059164,0.41296,-0.67535,0.071918,-0.84174,0.35681,0.01126,0.21916,0.11007,-0.28233,0.93517,0.95813,-0.15335,-0.15013,-0.70598,-0.34723,-0.94595,-0.82381,0.87203,0.064288,-0.45285
0.038796,0.36043,-0.62213,-0.72533,-0.83153,0.43909,-0.080084,0.55295,-0.97799,0.042328,0.71754,-0.79524,-0.32364,-0.49124,-0.93185,-0.4728,-0.62956,-0.81461,0.55053,0.46395,-0.4804,0.61802,0.38662,-0.14807,-0.073507,-0.72155,-0.56642,-0.59091,0.65576,0.89016
-0.30897,0.29015,-0.37353,-0.90515,-0.75859,-0.27085,-0.43645,-0.8335,0.53166,0.97703,0.25193,-0.062086,-0.6532,-0.88199,0.89362,-0.81748,-0.14354,-0.42658,0.82711,0.63326,0.82124,-0.58091,-0.22398,-0.40431,0.083627,0.90351,-0.28633,-0.30059,0.85282,-0.90429
0.82558,-0.70396,0.14025,0.54877,-0.74249,0.54639,0.90606,-0.63925,-0.71796,0.67722,-0.76034,0.99048,0.66863,0.86266,-0.3189,0.93691,0.26792,-0.2887,0.94088,0.38805,-0.93168,-0.88507,-0.002335,-0.30315,0.23998,0.98389,0.83312,0.024012,-0.73517,-0.21001
-0.97718,0.17306,-0.77568,-0.66741,-0.36592,0.12087,0.25404,-0.76904,-0.99429,-0.67107,0.77798,0.8466,-0.27433,0.062194,-0.86166,0.1592,0.70802,-0.73071,-0.9016,-0.80401,-0.57149,0.1011,-0.55979,-0.21097,-0.33907,-0.27773,-0.090268,-0.78379,-0.65273,-0.21203
-0.59452,0.64516,0.4504,0.72606,-0.5295,-0.64884,-0.48659,0.019005,0.751,-0.7985,-0.0049517,-0.48602,0.66859,0.25784,-0.28191,0.48972,-0.37029,0.88752,0.47202,-0.55397,-0.54172,0.00077346,-0.56405,0.20068,0.8168,-0.024049,0.51721,-0.52281,-0.44683,0.7694
-0.69324,0.2477,-0.89297,0.18046,-0.12472,0.64272,-0.27946,-0.26239,-0.97747,0.22196,-0.77245,-0.06426,-0.46865,0.85274,-0.22537,-0.51924,0.98375,0.73942,-0.95832,0.95301,-0.38409,-0.052283,-0.40674,0.89865,0.39835,0.50418,-0.12079,-0.49836,-0.21773,0.48844
0.19018,-0.097438,0.52836,-0.54673,0.29609,-0.19943,0.53358,-0.67406,-0.063829,-0.75278,-0.15172,-0.77933,-0.22303,0.43683,0.22701,0.89692,0.79944,-0.52778,0.95816,-0.55943,0.34738,-0.074241,-0.41774,-0.42559,-0.29559,0.34015,0.10987,-0.24695,-0.06084,0.97717
0.010052,-0.45058,0.9338,0.70792,0.88104,0.28597,0.41154,-0.025749,-0.69229,0.78523,0.039831,-0.53383,-0.72651,-0.26568,-0.12427,0.36647,-0.23869,0.30066,0.61994,0.019581,-0.14275,0.63927,-0.028903,0.68228,0.015968,0.13249,-0.80335,-0.23488,0.085094,-0.46715
0.79254,-0.36415,-0.57204,-0.50018,0.70626,0.54924,-0.5676,0.93094,-0.12491,0.5244,0.93709,0.1175,0.66172,-0.96083,-0.45738,-0.91051,-0.14564,0.79953,0.56362,0.45523,-0.24682,-0.65476,-0.86288,-0.27097,0.46275,0.07115,-0.817,0.34163,-0.81651,-0.05459
0.91206,-0.57581,0.86252,0.9174,0.3361,-0.9841,0.82917,0.96205,0.37109,-0.69238,0.95075,0.10174,-0.578,-0.49699,-0.61137,0.903,-0.62277,0.8983,0.9429,0.36336,0.2801,0.73429,-0.48395,-0.64036,0.53872,0.48101,-0.62854,0.90492,-0.14816,-0.71795
0.10953,-0.98751,0.52951,0.91075,0.91692,-0.57562,0.16635,0.33848,-0.41122,0.89547,-0.83435,0.023334,-0.3792,-0.54038,0.88565,-0.89692,0.65031,-0.5891,0.1354,0.836,0.046199,0.078449,0.010143,-0.64362,0.74667,-0.8364,0.13439,0.44919,0.49538,0.80529
-0.68064,-0.034634,-0.13561,0.81798,0.4414,-0.015741,-0.78002,0.53317,0.34021,0.27081,-0.68312,-0.22063,0.26007,0.63828,-0.89812,0.8233,0.85144,0.37056,0.27381,-0.36111,-0.80822,-0.81744,0.85376,-0.079451,-0.64927,0.49636,-0.011216,-0.21614,0.48733,0.88284
0.43367,-0.49286,0.85964,0.251,0.61624,-0.19918,0.72493,-0.73319,0.57592,0.60591,-0.11386,0.3177,0.010186,0.65029,0.74034,-0.52157,0.24287,-0.59003,0.70269,0.036466,0.21707,0.27007,0.36085,0.84479,0.42247,-0.85218,0.49831,0.24231,0.66959,0.71087
-0.1494,0.35025,0.074754,-0.42714,-0.58263,-0.15676,-0.32139,-0.6771,-0.29073,0.36707,-0.0079844,-0.09322,0.52289,0.35358,-0.33143,0.53217,-0.034048,0.5149,-0.036391,-0.31235,-0.47176,0.10499,-0.76184,0.31833,0.00047431,0.043452,-0.40328,-0.1999,0.40769,-0.25695
-0.037247,-0.77989,0.71481,0.31959,-0.40341,-0.74081,0.0078579,-0.16314,0.00038892,-0.66041,0.36993,0.38816,0.083302,-0.22807,0.60377,0.15829,0.08044,-0.046593,0.20351,0.44061,-0.46786,0.52766,0.69628,-0.14136,-0.13471,0.10479,0.64589,-0.086228,0.20686,0.044063
-0.28331,0.048295,0.14977,0.94951,0.34033,-0.35231,-0.0089121,0.77122,-0.22555,-0.52208,0.82817,0.087532,0.99953,0.53911,-0.90893,0.085334,0.14504,-0.43319,-0.54382,0.64687,-0.10365,-0.31841,-0.28204,-0.63156,-0.20551,-0.30648,-0.52822,-0.25788,-0.13136,-0.27928
-0.22921,0.4172,-0.42252,0.54681,0.69526,-0.48004,0.098602,0.72936,-0.57828,-0.85921,0.791,0.39173,0.97315,0.045813,-0.99418,0.063422,-0.44869,0.79988,0.45279,0.914,0.58887,0.94961,-0.42029,0.13192,-0.58274,0.01177,0.28672,-0.10709,-0.72453,0.4986
0.029592,-0.82049,0.7871,0.8061,0.11486,0.0033682,-0.38039,0.21571,0.25487,-0.34956,-0.94944,-0.8883,0.72653,0.85522,0.085411,0.89966,-0.89427,-0.92729,-0.7882,0.57612,0.4135,-0.0015607,-0.93766,0.75943,-0.39514,-0.9504,-0.39813,-0.50649,0.3806,-0.39663
-0.24305,-0.78943,-0.9942,0.18015,0.77574,-0.73159,0.70872,-0.32402,-0.50835,-0.28683,-0.88915,0.032123,0.81708,-0.68393,0.16173,-0.56517,0.7399,-0.90645,0.64889,0.80502,-0.21768,0.20623,-0.79462,0.43235,0.037036,-0.46903,0.26786,-0.95765,0.20407,0.94572
-0.65943,0.4404,-0.37623,0.5521,-0.7681,-0.71432,-0.21152,0.37626,-0.88722,-0.062442,-0.91509,0.7125,-0.69753,0.4011,-0.42444,-0.25579,0.42314,-0.16551,-0.32204,0.27283,-0.37701,-0.0057009,-0.77272,0.47349,0.69205,0.84906,-0.048778,-0.77233,0.70357,0.46659
-0.06065,0.28896,-0.8733,-0.47328,-0.59798,-0.6166,-0.12982,-0.79164,0.89747,0.50073,-0.17927,0.0016161,0.52582,-0.19181,0.63718,0.20779,-0.39943,-0.12509,-0.61974,-0.4263,-0.10826,0.30201,0.029883,-0.33955,-0.83833,0.78204,0.55401,0.99706,-0.4583,0.14307
0.66131,-0.068357,-0.010123,0.94427,-0.79932,0.56599,0.61405,0.42734,0.93772,-0.91649,0.58894,-0.44878,-0.2178,0.4556,0.052084,0.38243,0.92564,-0.77149,0.022118,-0.92607,-0.70593,-0.94767,-0.96311,0.86449,0.52609,-0.63001,0.95469,-0.74589,0.92844,-0.81092
-0.54984,0.81095,0.58925,0.32775,0.30342,-0.44398,-0.12042,0.88873,0.63169,0.51661,0.75535,-0.087578,-0.26288,0.84875,0.41935,0.18023,-0.53234,-0.16639,-0.041296,0.2028,-0.14244,0.90597,0.3834,-0.23944,-0.99006,0.77683,-0.26598,-0.42396,-0.69683,0.33183
-0.35235,0.77678,-0.5655,0.42667,-0.58496,-0.13415,-0.30256,0.95108,0.73167,-0.81255,-0.034025,0.60676,-0.55673,-0.13241,0.86121,-0.47737,0.084347,-0.31879,-0.56391,0.54466,-0.37749,-0.17897,-0.80347,-0.82057,-0.3695,0.11128,-0.18649,-0.38684,-0.8952,0.46309
0.026775,0.36506,0.94405,-0.033124,0.92193,0.69246,0.47811,-0.75677,-0.1622,0.35246,-0.3576,0.26037,0.60681,0.7027,-0.678,-0.1435,0.36811,0.9679,-0.011443,-0.44404,0.63679,-0.95015,-0.12164,0.28802,-0.43526,0.49032,0.050837,0.97507,0.39403,-0.26655
-0.1305,0.25317,-0.17233,0.44074,0.31236,0.070787,0.10846,-0.44619,-0.61022,0.68334,0.34566,0.82776,-0.55888,-0.38174,-0.19669,0.78265,-0.27856,-0.6944,-0.016686,-0.17742,0.68805,0.16506,0.9607,-0.25256,-0.29522,0.49277,0.24415,-0.70047,0.58297,-0.0074582
0.037816,0.29907,-0.78524,-0.64752,0.41897,-0.02375,0.1281,-0.24811,0.18756,-0.43964,0.89754,-0.86584,-0.20311,0.47905,0.76258,0.50953,-0.4721,0.13075,-0.19291,-0.018537,0.8606,-0.037995,-0.65914,-0.80816,-0.71319,-0.1917,0.82837,-0.66819,-0.1821,-0.53644
0.69656,0.85339,0.017922,0.79695,0.24755,-0.69833,0.4435,0.31566,0.057214,0.58032,-0.76982,0.3664,-0.01039,0.81149,0.15712,-0.23773,0.10968,-0.87124,-0.41795,-0.72642,-0.5516,0.3979,-0.76768,0.2436,0.49643,-0.99204,-0.52857,-0.086128,0.39196,-0.4676
0.84341,-0.97167,0.80212,0.23182,0.47699,-0.42049,0.27805,-0.63688,-0.68782,-0.82789,0.021378,0.54961,-0.22491,-0.27547,0.53302,-0.80206,-0.92749,0.85069,0.95089,-0.9642,0.8152,-0.84501,0.073062,0.83983,0.94288,-0.49252,-0.084538,-0.53549,-0.1359,0.99777
0.8741,-0.62634,-0.94826,-0.30358,0.5449,0.42464,0.23368,0.42348,0.86705,-0.72117,-0.4991,-0.17409,0.81126,0.32431,0.2886,-0.73561,0.6705,0.97303,0.52376,-0.39492,0.37944,0.14792,-0.67593,0.15547,0.1753,-0.8377,0.6001,0.19612,-0.51909,0.82624
-0.98723,0.72571,-0.75763,-0.94922,0.88307,-0.49635,-0.506,0.21958,-0.66847,0.23831,-0.57248,0.47481,0.058091,0.21441,0.7897,0.2774,-0.24412,0.2774,-0.86997,-0.69657,-0.47155,-0.46162,-0.27885,-0.91739,0.57275,-0.67988,0.15761,-0.32651,0.44312,0.15822
0.48972,-0.94105,-0.1616,-0.070688,-0.65976,-0.68857,0.49265,-0.62965,0.054612,-0.75366,-0.697,0.43718,0.50297,-0.51912,0.24589,0.84588,-0.10722,-0.12933,0.17332,-0.98036,-0.19447,0.18512,0.20122,-0.65317,0.10999,-0.32806,0.62286,0.57088,0.82044,-0.22548
0.33526,-0.70675,-0.41835,-0.94301,-0.92749,0.94134,0.58297,0.90661,-0.24725,-0.54264,0.052891,-0.14891,-0.20235,-0.34055,-0.92636,0.63428,0.18664,-0.68932,-0.050014,-0.95929,-0.56112,0.74501,-0.9099,0.20282,0.21446,-0.11724,-0.44007,0.55579,-0.37444,-0.66744
0.40041,0.5471,0.55476,0.65127,-0.8123,-0.62387,0.17383,-0.48034,0.37881,0.27938,0.32905,0.83574,-0.29123,0.1928,0.36443,-0.79921,0.6161,-0.67255,-0.14568,-0.41388,0.68622,0.30312,-0.29737,-0.95808,0.47709,0.5783,0.71008,-0.84037,0.73279,0.67935
0.24229,-0.32719,-0.33928,-0.76354,0.76142,0.33413,-0.057359,-0.60589,-0.18846,-0.7648,0.23665,-0.9826,-0.41671,0.58133,0.1716,-0.25831,0.17019,0.67502,0.47832,0.35317,0.27342,-0.32458,0.5554,0.51052,-0.138,-0.65924,-0.23964,0.58795,-0.094196,-0.4022
-0.81041,0.36876,0.16018,0.60104,-0.1613,-0.60516,0.25436,-0.17587,-0.42882,-0.87067,-0.87581,-0.96996,0.35412,0.70323,0.411,-0.24022,0.95343,-0.37411,0.62437,0.70734,-0.70827,0.48782,0.50015,-0.26026,0.37608,-0.38746,-0.48076,-0.51239,0.9384,0.38577
-0.4867,0.44851,-0.42703,0.32054,-0.96625,0.78288,0.49261,0.55487,0.6798,0.2014,-0.96627,0.93651,0.87691,-0.25977,0.75823,0.80268,-0.91393,-0.41388,0.96709,0.90346,0.48796,-0.4385,-0.99707,-0.98492,0.70131,0.61481,0.7292,-0.38423,0.121,-0.69435
0.50442,0.55874,0.72122,0.97667,0.59101,-0.84546,-0.99208,-0.6471,-0.84595,0.36891,-0.13511,0.6747,0.304,0.88016,-0.97327,-0.88329,-0.91119,-0.22311,0.030273,0.736,0.72878,-0.27951,-0.016402,0.42209,0.33105,-0.53222,-0.20602,0.4745,0.095481,0.067341
-0.84625,-0.54864,0.17484,0.69516,0.25873,0.9991,-0.74526,-0.7912,0.50768,0.60312,-0.5106,0.13404,0.00091013,0.48756,0.56266,0.23676,0.97696,-0.42592,0.93386,0.76845,0.69683,0.73377,-0.050542,-0.14749,-0.92343,0.60138,0.32228,0.63102,0.84939,-0.6792
0.12839,0.21574,0.79435,0.10987,-0.84389,-0.72618,0.6196,0.6353,0.98143,-0.71051,-0.21895,0.79488,-0.81443,-0.73992,0.98646,0.14661,0.77521,0.4031,-0.30754,-0.34587,0.64027,-0.92831,-0.95256,-0.94905,0.82856,0.78727,0.47395,-0.61447,-0.54737,-0.93276
0.57473,0.94169,-0.7437,0.5946,-0.98092,-0.82462,0.058644,-0.84565,-0.27413,-0.58439,0.73182,-0.22149,0.76903,0.035338,0.48617,0.31363,0.1858,0.53454,0.61895,-0.38677,-0.01061,0.88918,-0.053129,0.96085,-0.21796,0.62377,-0.65334,0.031047,0.40583,0.91075
0.71307,-0.51599,0.69718,-0.94805,0.3027,-0.23352,-0.45988,-0.8128,-0.079757,0.59519,0.91231,0.98454,-0.63339,0.59659,-0.70773,0.13538,-0.96747,-0.85531,0.69342,-0.82043,-0.165,-0.87494,-0.48288,-0.038043,-0.85974,0.063713,0.31849,0.061257,0.82624,-0.76732
0.18772,0.93693,0.53061,-0.39512,-0.59563,-0.35186,-0.20318,-0.75783,0.48174,0.54098,0.33621,-0.072619,-0.26901,0.49166,0.77946,-0.85013,-0.20286,0.69698,0.072506,0.28254,0.88045,0.43895,-0.55431,-0.40763,0.22961,0.32118,-0.83548,-0.68648,0.3405,0.046356
0.68917,-0.033661,-0.11511,-0.61554,0.71605,0.90976,0.47228,-0.51447,-0.51096,0.93884,0.47798,0.8562,0.62017,-0.71419,-0.5731,0.51457,0.18017,0.65335,-0.30009,-0.66002,0.15628,-0.49401,0.22692,0.69923,0.80667,-0.52736,-0.37007,0.71456,0.66903,0.49997
-0.07165,-0.39543,0.4845,-0.87508,0.43165,0.46909,0.60917,0.42928,-0.66989,-0.83513,-0.98129,0.16627,-0.82364,0.24441,-0.99039,-0.045324,0.27153,0.57051,0.77914,0.60804,0.66442,0.97088,-0.42931,0.20462,0.7843,0.18705,-0.62043,-0.54022,0.017609,0.014821
-0.35185,0.76973,0.74785,0.065198,-0.12439,0.47219,-0.13534,0.86805,-0.31184,0.96064,-0.84693,-0.85333,-0.1268,0.98771,0.35571,0.58314,-0.98141,0.54673,0.76185,0.83985,0.31114,0.39258,-0.3534,0.80615,0.94633,-0.27924,-0.45379,0.44645,0.74604,-0.27798
-0.97138,0.19766,0.7015,0.96593,-0.952,-0.23912,-0.078097,0.24392,0.56772,0.41095,-0.51651,-0.1614,0.5833,-0.59759,-0.20982,-0.33817,0.48458,0.94371,-0.88808,0.37978,0.89256,-0.33237,0.80619,-0.62704,0.95544,0.13777,0.15873,0.59915,0.89326,-0.032009
-0.034302,-0.83187,0.20296,0.10595,0.9566,-0.48392,0.84522,0.42547,0.40309,0.46122,0.74985,0.071415,0.92834,0.28164,-0.081448,0.35665,0.50148,-0.78157,-0.65725,0.45652,0.39433,-0.35557,0.99467,0.72265,-0.23408,0.9716,0.1872,0.56365,-0.18938,-0.49845
0.45758,-0.18006,0.6925,0.30727,-0.67587,-0.13697,0.8246,0.124,0.57561,-0.52818,0.46009,0.059285,-0.090158,-0.042453,-0.5555,-0.3329,0.37961,0.42103,0.36522,0.31119,-0.547,0.02805,0.5036,-0.1419,0.42342,0.51373,0.21584,-0.1257,-0.85398,0.7261
-0.98508,-0.60912,-0.86318,0.27956,-0.76355,-0.86082,-0.051523,-0.22707,-0.66107,0.67398,-0.44072,0.97886,-0.23906,-0.27047,-0.0063344,-0.062119,0.13289,-0.15861,0.53715,-0.034437,-0.80544,-0.16987,0.33401,0.9918,-0.52516,0.61307,-0.10064,0.91578,0.90159,-0.83427
0.6181,-0.25149,-0.68143,0.70104,0.99379,-0.085272,-0.33171,0.39883,-0.0039626,0.22402,-0.36126,-0.37981,-0.19561,-0.27666,-0.35647,-0.3755,0.04001,-0.40112,-0.095712,0.19994,0.35621,0.91934,0.91233,-0.1615,0.11799,-0.46527,0.33498,-0.49279,0.23659,0.99722
0.23838,-0.66217,0.17778,-0.95123,0.57426,0.38734,-0.40737,0.43509,-0.68037,0.4266,-0.36378,0.53074,0.89367,-0.29234,-0.13644,0.39742,0.2407,0.8041,-0.57425,-0.23901,-0.88114,-0.082853,-0.90729,-0.07945,0.73147,0.41845,0.98161,-0.57381,0.32684,0.67335
0.81303,-0.43511,0.58854,0.45032,0.70598,0.59713,0.47177,0.95577,-0.97554,0.60678,0.27472,0.39377,-0.88789,0.43932,-0.27497,0.087326,-0.10438,0.19824,0.19854,-0.87852,0.5124,-0.4875,0.61507,-0.30038,0.90654,-0.90719,-0.65748,-0.70601,-0.20737,0.031243
-0.36055,-0.11856,0.55606,-0.78435,0.82993,0.12762,-0.54535,-0.82665,0.41543,-0.54886,0.010903,-0.18215,0.67291,0.3924,0.39481,-0.96817,0.79959,-0.071875,0.2474,0.91831,-0.93267,-0.043037,0.71523,-0.072278,0.10635,0.34794,-0.8188,0.56516,-0.10886,-0.54866
-0.77153,-0.078981,0.2911,0.59114,-0.96676,0.89372,-0.89695,0.097879,0.16853,0.82846,-0.50793,0.31426,-0.95839,0.53759,0.25142,-0.2758,0.66796,-0.081192,0.51836,0.8469,-0.69,0.87967,0.03744,0.76075,0.39428,0.78646,-0.094547,-0.027774,-0.75786,0.7656
-0.53416,-0.12642,0.63246,0.8778,0.86734,0.3854,0.515,0.14002,-0.33874,0.8567,0.35067,0.49159,0.48258,-0.23804,-0.53824,-0.56525,-0.53389,0.033242,0.13879,-0.17215,0.60458,-0.79517,0.57801,-0.76066,-0.029396,-0.73669,-0.13073,-0.85892,0.75863,-0.51527
0.15395,0.63376,0.51653,-0.32609,0.24355,-0.40627,0.30232,-0.6553,0.50833,0.48365,-0.28274,-0.8859,0.52226,0.97659,-0.65987,0.18559,-0.82229,0.67131,-0.64847,0.92799,0.90281,0.56936,-0.66031,0.90857,0.29007,0.43081,0.42778,-0.64576,-0.53287,0.36361
0.36928,-0.85996,-0.59946,-0.73706,0.66171,0.73726,0.97845,-0.024591,-0.53693,-0.075399,-0.58648,-0.20784,-0.51548,0.50056,0.6807,0.65483,0.35229,0.55035,-0.060905,-0.71969,0.70833,0.38448,0.13662,-0.10621,0.82295,0.28112,-0.70898,0.37255,0.9063,-0.88862
0.89798,-0.38302,0.9737,0.80147,-0.20832,-0.54337,-0.050058,-0.85503,-0.28337,-0.34237,-0.88384,0.17252,-0.39622,0.85215,0.61058,-0.059607,-0.17938,-0.72902,0.50936,0.0012106,-0.65855,0.81055,-0.21278,0.19747,0.20764,-0.031487,-0.061309,0.33006,-0.90402,-0.47021
0.74728,0.21129,-0.51436,0.13953,-0.13445,0.59457,-0.7684,-0.58711,0.23805,0.62458,-0.25642,-0.063186,0.41629,0.35977,-0.38731,-0.035824,-0.25123,-0.65326,0.65026,-0.98382,-0.22211,0.95456,0.6759,0.039126,0.86329,-0.6197,-0.066538,0.64447,-0.56905,0.80876
0.95801,-0.90497,-0.94213,-0.74758,-0.29412,-0.62345,0.39571,-0.37775,0.69635,-0.45967,0.65108,0.11396,-0.61021,-0.58758,0.21043,0.63989,-0.051024,-0.59102,-0.075927,-0.22737,0.82515,-0.78626,-0.83936,0.90662,-0.46857,-0.33749,-0.10866,0.76801,0.10633,-0.75787
0.28498,0.050454,-0.65687,-0.4055,-0.72433,-0.1556,-0.59402,0.26014,-0.76243,-0.68528,0.6477,-0.57046,-0.81821,-0.76049,-0.44987,-0.33431,-0.13397,0.96881,-0.31421,-0.55048,-0.327,-0.85232,-0.23866,0.75413,0.76261,0.48868,0.25938,0.79652,0.77673,0.70463
0.82244,0.97799,-0.36045,-0.058591,-0.47666,-0.43241,-0.82494,-0.3198,-0.65691,-0.64156,0.48207,0.74385,-0.38324,0.67986,0.17003,-0.60063,-0.47757,-0.39992,-0.65355,0.14783,-0.69557,-0.22427,0.15482,0.43487,-0.26784,0.13257,0.4178,-0.73641,0.68886,-0.35344
-0.29435,0.35782,0.44987,0.47043,-0.041483,-0.46889,-0.28467,-0.18346,-0.22281,-0.44344,-0.83645,-0.22167,0.2678,0.70454,-0.75312,0.025287,-0.27495,-0.12655,0.63163,0.9245,0.003784,0.34981,0.49042,-0.29106,0.80712,-0.031193,-0.32062,-0.030549,0.94947,-0.37786
-0.78647,0.35223,0.0089595,0.065287,-0.82474,-0.33834,0.78984,0.55581,-0.115,0.25971,-0.082766,0.29815,-0.86895,-0.5898,-0.11634,0.22765,-0.2999,-0.69159,0.5203,0.25194,0.24456,-0.63874,-0.080103,0.33361,0.0639,0.034619,0.5712,0.40526,-0.67204,-0.38828
-0.64007,-0.82014,-0.18143,0.66666,-0.4673,-0.40733,-0.23076,0.4508,0.71273,-0.73238,0.016564,-0.40358,-0.15764,0.16397,0.76659,0.2325,-0.81726,-0.28337,-0.77618,0.98046,-0.38487,0.71605,-0.84965,0.037619,0.16541,0.72132,-0.79377,0.41605,0.056545,0.90149
0.93202,0.52676,-0.26284,-0.54324,-0.13401,0.61462,-0.38868,0.76949,-0.22529,0.61123,-0.85898,0.47536,0.16726,0.70877,0.45722,-0.93506,0.48958,0.50416,0.42627,-0.55214,0.91884,-0.023296,-0.93975,-0.10784,-0.46016,-0.96932,0.086303,0.57839,0.67748,-0.7256
-0.15477,-0.89671,0.55427,0.82932,-0.35205,0.85045,0.96134,0.027524,0.66204,0.69511,-0.56899,0.40313,-0.48218,-0.16693,-0.0046491,-0.6553,-0.67677,-0.54557,-0.27473,-0.93906,0.30334,-0.84948,-0.53589,-0.89227,-0.59335,-0.18343,0.24563,-0.30885,0.42546,-0.92688
-0.90368,0.66313,0.30202,0.42911,-0.58265,0.99949,0.73832,-0.81172,0.37661,0.70019,-0.55853,-0.9779,-0.84315,-0.74581,-0.86059,0.39637,-0.3577,0.85717,0.54045,-0.22045,0.72271,-0.14082,0.97328,0.14508,0.32609,-0.86779,-0.14069,0.27466,-0.48688,-0.69028
-0.81476,-0.26602,-0.64522,0.035675,-0.29145,0.058963,0.05827,-0.4208,-0.59997,-0.34039,-0.15473,0.2214,0.35109,-0.053687,0.59725,-0.53788,-0.66146,0.64985,-0.69662,0.86843,-0.054467,-0.79623,-0.2782,0.95471,-0.096714,0.64622,-0.51384,-0.67304,0.1506,0.8065
-0.44252,0.0019103,-0.26583,0.12882,-0.56026,-0.44266,0.42064,-0.58191,-0.51116,-0.58595,-0.17954,0.0797,0.84029,0.22636,-0.19477,-0.49039,0.36899,0.91769,0.93228,0.75082,-0.17258,-0.76072,0.056458,-0.61628,0.99704,0.37631,-0.14033,0.046751,-0.70768,0.85017
0.04459,-0.44983,-0.9795,0.6982,0.16557,0.38349,-0.047219,0.26717,-0.7517,0.76979,-0.16719,0.4926,0.85167,0.22317,-0.064813,-0.18221,0.020683,0.5924,-0.35033,0.5456,-0.72525,0.065582,-0.095442,0.048822,0.88028,0.3829,0.88027,-0.68934,0.28996,0.29457
-0.38831,-0.55387,-0.8584,0.45766,-0.29048,0.23587,0.6135,0.33326,0.94124,-0.73651,0.11881,0.015003,0.79189,-0.12288,0.66935,0.74705,0.61343,0.79607,-0.03476,0.30926,-0.24792,-0.81083,-0.38286,-0.30998,-0.2522,-0.39047,0.037046,0.056214,0.088889,0.64673
0.051654,-0.64807,0.10021,0.29069,-0.81009,-0.41041,0.34928,-0.60828,0.70668,0.078667,0.34138,0.3887,0.072149,-0.24703,-0.74678,0.83978,0.0022763,0.51572,-0.41805,0.85984,-0.37407,0.69321,0.28633,-0.72603,-0.096944,-0.059319,0.45954,0.85854,0.75316,-0.15171
0.96103,0.31398,-0.5046,-0.58122,-0.69267,-0.76304,-0.20745,0.1329,-0.93695,-0.66366,-0.56604,0.029493,-0.42453,-0.77929,-0.16561,-0.39174,0.83428,-0.97637,-0.66699,-0.99526,0.27503,-0.38549,-0.68853,-0.9089,0.85776,0.065591,-0.44848,-0.76447,0.06183,0.63654
-0.90789,-0.34156,0.27648,-0.64232,0.18347,0.48498,0.44662,-0.76435,-0.31201,0.54831,0.27067,0.35494,0.83736,0.035601,0.8823,-0.7119,-0.90343,-0.86491,-0.67314,-0.2721,-0.79193,-0.84678,0.22222,0.15611,-0.5461,0.71331,0.92605,-0.22143,-0.13782,-0.4849
0.90685,-0.26464,0.43644,-0.35664,0.080915,-0.072908,0.038575,-0.5141,-0.64451,0.26608,0.97011,-0.343,0.12602,0.76803,-0.97118,-0.88597,0.94991,-0.56103,0.084937,0.1503,0.53238,-0.45287,-0.68767,-0.40213,0.58712,0.96969,-0.33499,0.48748,0.071182,-0.93306
0.57376,-0.30037,-0.24085,0.23241,0.12816,-0.26805,0.34911,-0.90266,0.73002,0.5233,0.15839,-0.84005,-0.64031,-0.85913,0.90599,-0.2692,0.020311,0.98989,0.74655,-0.27456,0.042123,0.41082,0.52926,0.20067,0.48294,0.96455,0.69115,-0.67232,0.78532,0.061986
-0.30568,0.16214,0.58999,-0.79863,-0.12017,-0.9104,0.069798,0.83349,0.65542,-0.53372,-0.35175,0.77515,0.33759,0.49166,0.95515,-0.69218,0.28607,0.87844,-0.61623,-0.42645,0.62068,-0.46966,0.60951,0.036199,0.6584,-0.86469,-0.50002,0.6901,-0.30085,-0.62295
-0.44315,0.8981,-0.12397,0.11625,-0.9243,0.67752,-0.52612,0.97914,-0.29677,-0.94446,-0.37452,0.86747,-0.11617,0.96205,0.98879,-0.70571,0.070054,0.66523,0.53678,-0.47938,0.96941,0.74471,0.54037,0.16032,-0.28481,-0.20151,0.059991,-0.56508,-0.72785,0.028298
0.515,0.41274,0.87492,0.36817,-0.35253,-0.62661,-0.50399,0.3615,0.88184,-0.98298,0.13958,-0.94099,-0.53141,-0.18604,-0.51952,-0.38296,0.63569,-0.27541,0.73779,0.47629,0.77884,0.85848,0.15723,-0.52453,-0.80497,0.16785,0.36214,-0.61502,0.69337,-0.31878
-0.64128,-0.33779,0.62861,-0.28139,0.56688,-0.19814,0.48576,0.059669,0.55316,0.83897,-0.060468,-0.066661,0.89203,-0.80423,0.90722,0.0035051,-0.47778,-0.27704,0.55076,0.39991,0.68974,-0.46693,0.71841,-0.346,0.63939,-0.44152,-0.30186,0.096319,-0.48408,-0.46752
-0.094483,0.48431,-0.060248,-0.51074,-0.50772,-0.87464,0.88153,-0.97598,-0.10052,0.023069,0.96948,-0.041876,-0.48303,0.62687,0.7311,-0.80085,-0.61698,0.69592,0.6505,0.014101,-0.98227,-0.27298,-0.70437,0.86759,-0.64285,-0.83898,0.42227,0.32197,0.39802,-0.32567
0.79425,-0.88233,-0.80515,0.53564,-0.031218,-0.52331,-0.12319,0.35942,-0.3658,-0.50518,0.82442,-0.71982,0.58629,-0.077266,0.50799,-0.87941,0.86329,-0.60012,0.3217,-0.40217,-0.32019,0.63383,0.18481,0.83579,0.94563,0.68562,0.66432,0.6887,0.35858,-0.52592
-0.95599,-0.06341,0.44425,-0.93704,0.71073,0.87534,0.17146,-0.85396,0.53119,0.1626,-0.60766,0.44527,0.85012,0.22957,0.39881,-0.39251,-0.20384,-0.055748,0.53932,0.93993,0.45668,-0.78299,-0.3815,0.82205,0.18638,-0.5501,0.6451,0.63894,0.21809,-0.91944
0.20171,0.10225,-0.67549,-0.56984,0.32762,-0.91308,0.51643,-0.083986,0.12235,0.23408,0.26111,0.084536,0.81747,0.318,-0.87769,0.28138,0.79152,-0.43886,0.26381,0.2744,0.85644,-0.5918,0.20858,-0.013249,-0.26493,0.099831,0.8173,0.83113,-0.94221,0.073646
0.92024,0.34955,0.23817,0.68503,0.27454,0.51549,-0.73576,-0.86949,-0.86868,-0.98969,-0.47619,-0.37162,0.5074,0.44057,0.70565,-0.50124,0.57459,-0.26606,0.91007,0.1818,-0.21558,-0.25387,-0.54109,-0.84313,0.80224,-0.23045,0.42566,0.77153,-0.93253,-0.54863
-0.83093,-0.017957,0.38796,-0.40392,-0.22167,-0.035709,-0.52452,-0.30685,-0.92894,-0.4412,-0.34231,-0.69765,-0.050455,0.25822,-0.94502,-0.4023,-0.57416,-0.89273,-0.27484,-0.86239,-0.4345,0.53854,0.59153,0.030746,-0.53398,-0.66816,0.62172,-0.3777,-0.31366,0.19466
0.656,0.36329,0.1299,0.7361,0.16248,-0.2305,0.98195,0.19298,0.59336,-0.90535,-0.25062,0.55918,0.53401,0.78943,-0.31496,0.40268,0.64474,-0.03109,0.28507,-0.82196,-0.1214,-0.78102,-0.066608,0.035649,0.069342,0.41728,-0.85021,0.78903,-0.43745,0.11629
-0.75188,-0.58224,0.56038,-0.06025,0.76188,-0.57184,-0.69877,0.92923,0.14098,-0.18636,-0.15936,-0.32883,-0.60908,-0.85278,-0.073394,-0.62614,-0.78024,0.18984,0.58262,-0.78362,0.29231,0.89705,-0.14093,-0.086622,0.39495,-0.71633,0.036333,-0.77422,0.83031,0.62647
-0.94319,0.13795,-0.47726,0.13609,0.91093,-0.29245,-0.74373,0.71858,-0.30681,0.084326,0.27931,0.13461,0.78326,-0.97086,0.87694,0.83428,-0.17631,-0.053738,-0.52368,0.71878,-0.79639,0.61309,0.1651,0.81053,-0.75576,0.25831,-0.46661,-0.49014,-0.084513,-0.00064575
-0.93062,-0.20222,0.26021,0.97908,0.55938,-0.86419,-0.055688,0.9696,-0.70675,-0.78383,-0.86312,0.49773,-0.7971,-0.31181,-0.089536,-0.44478,-0.24942,0.30362,0.38175,0.54181,0.77836,0.15821,-0.2071,-0.11732,0.11094,-0.26618,-0.26504,0.46066,0.41479,0.92798
-0.29162,-0.52138,-0.32078,-0.44456,0.067978,0.38393,-0.84204,-0.53586,-0.77699,0.94179,0.5579,-0.33326,-0.16437,0.14716,-0.79574,0.032473,-0.25382,-0.86124,-0.11431,-0.11437,0.617,-0.93795,0.16323,0.40996,-0.37537,0.36648,0.048761,0.77281,-0.68434,0.70072
0.36506,-0.65582,-0.10124,0.024935,0.90297,0.78184,-0.518,-0.77331,0.0031746,0.39031,0.93418,-0.39806,0.85851,0.40616,-0.05704,-0.22784,-0.24256,0.12051,-0.68322,0.051091,-0.62511,0.83964,-0.80996,0.1154,-0.69024,0.10442,-0.43447,-0.46308,-0.33057,0.22172
-0.31401,0.31903,-0.64008,0.90303,0.89191,-0.5018,-0.72881,0.57586,-0.32681,-0.37646,-0.21292,-0.28763,0.67388,0.33132,-0.051658,-0.67264,-0.41387,0.70483,0.053364,0.85148,-0.87313,-0.15154,0.63383,0.70444,-0.25223,0.74817,0.83762,-0.11265,-0.016951,-0.94013
0.46784,0.13442,-0.63041,0.41896,0.17993,0.29922,-0.29073,-0.98458,-0.42897,0.077872,-0.96308,0.14997,-0.18558,0.98729,0.30019,-0.23055,0.52417,-0.032998,0.66584,0.22291,-0.76108,-0.42956,-0.7009,0.92262,0.76811,0.35292,0.65397,-0.26853,-0.77764,-0.91334
0.17449,-0.63071,-0.31849,-0.34766,0.32459,0.84511,-0.24685,0.2629,0.92025,0.58795,0.86146,0.72483,0.22804,-0.033059,-0.8906,-0.85058,-0.44054,0.88543,-0.87859,0.36547,-0.24715,-0.52055,0.1227,-0.91538,-0.45365,-0.41914,-0.56379,-0.59349,0.42442,0.94253
-0.056593,-0.85542,0.53477,-0.93405,-0.74753,-0.17477,-0.45835,0.69603,-0.23971,0.89416,0.18049,0.020558,-0.7456,-0.60033,-0.98101,-0.34774,-0.038243,0.68794,-0.071175,0.33479,-0.88557,-0.077105,-0.051475,0.076992,-0.31479,-0.37045,-0.12062,-0.85719,-0.73274,0.7868
-0.99614,-0.25469,0.29733,0.49859,0.96542,-0.11071,-0.19462,0.065546,0.02373,-0.24958,0.78376,0.21027,-0.10347,0.26828,0.033212,0.040027,0.082893,0.78075,-0.094336,-0.89922,-0.33497,0.2376,-0.82416,0.7098,-0.47836,0.11981,-0.13717,-0.85187,-0.40927,-0.91267
-0.14293,0.94543,-0.035586,-0.52274,0.17329,0.058929,0.45869,-0.60027,0.080594,0.38749,0.76351,-0.4196,0.15935,-0.036351,-0.42723,0.23457,-0.89422,-0.66965,0.23092,0.81388,-0.22854,-0.99256,0.38093,0.45541,0.64799,-0.090694,0.068997,0.93775,-0.73905,-0.026355
-0.2684,0.78998,0.35047,-0.60746,-0.19157,0.055657,-0.64806,0.12655,-0.13888,-0.21838,0.62959,0.52154,-0.53861,-0.68727,-0.743,-0.53328,-0.89802,-0.63953,0.59607,-0.38351,0.17147,0.39536,0.57143,0.85836,0.32918,0.71324,-0.61096,0.14042,0.7794,-0.09317
-0.48927,-0.79118,0.19124,-0.55407,-0.27231,-0.70758,0.89471,-0.86834,-0.1244,-0.88566,-0.32822,-0.13396,0.39578,-0.73817,0.91711,-0.0053139,-0.51814,-0.54212,-0.35367,0.69576,0.77023,0.85572,0.55805,0.25751,0.57505,0.98602,0.57633,0.5531,0.23432,-0.84126
-0.16214,0.82146,-0.29742,-0.49408,-0.53536,0.61995,0.23692,0.75322,0.17739,-0.21829,-0.58494,-0.91472,-0.22806,-0.65546,-0.04901,-0.34262,0.60437,0.37452,0.05885,0.46885,-0.10511,0.67016,0.9167,-0.37969,0.29529,-0.59745,-0.45518,0.46256,-0.31218,-0.79884
0.1822,0.17393,0.87323,0.17209,0.69434,-0.52677,-0.79789,-0.22595,0.65227,-0.021189,-0.30892,-0.81319,0.6687,-0.2743,0.51013,0.67158,-0.5867,0.4536,-0.15584,0.25402,-0.88821,0.2325,-0.81382,-0.5883,-0.6035,-0.1269,-0.73052,0.039782,-0.78912,0.76037
-0.81021,0.6848,0.31445,-0.28529,0.22414,-0.72497,0.59404,0.89282,0.6635,-0.75457,0.51365,-0.9087,-0.91651,0.30157,-0.26672,-0.81005,0.82241,0.67396,0.73879,-0.84297,0.31806,0.083749,-0.95051,-0.37971,-0.28343,-0.19439,0.32015,-0.34468,0.72573,0.29732
-0.55066,-0.40347,-0.72171,-0.67302,-0.82721,-0.9287,0.084141,-0.095165,0.3013,0.21856,-0.16153,0.056211,0.34452,-0.2332,-0.015464,0.4902,0.75984,-0.43604,-0.22071,-0.4468,-0.97339,0.45469,0.22082,0.17039,-0.63226,0.15062,-0.6717,0.11111,0.18771,0.78722
0.8105,0.55901,0.092767,0.11608,-0.24807,0.31491,-0.13164,0.065782,0.65149,-0.09409,0.34864,-0.84534,0.34196,-0.81031,0.28021,-0.69985,0.54505,0.44386,0.010641,-0.51262,0.14486,0.3527,-0.40243,0.29575,0.77924,0.96053,0.24367,-0.0997,-0.87407,-0.75186
0.39626,0.84032,0.059804,0.44235,0.29176,0.23016,0.52349,0.81886,0.17897,-0.19719,0.59711,0.95907,-0.36248,-0.068788,0.14176,0.92945,0.25878,-0.40802,0.57183,0.094288,-0.55153,0.12834,-0.50755,0.46708,-0.16994,0.2049,-0.6134,0.23061,-0.99402,0.21998
-0.56199,0.036822,-0.52852,0.94268,0.10408,0.41399,0.83744,-0.85369,-0.0083283,-0.76201,-0.64736,0.82185,0.76724,-0.92581,-0.1014,0.57597,0.43441,0.72755,-0.80845,-0.95936,-0.74412,0.78017,-0.59686,-0.54564,0.96016,-0.55426,0.53375,-0.87595,-0.83738,-0.65457
-0.92802,0.58998,-0.45361,0.93115,-0.28953,-0.76806,-0.24615,-0.69599,-0.22264,-0.86129,-0.10214,-0.17196,-0.5229,-0.93839,-0.48261,-0.33203,-0.11422,0.84823,0.15449,-0.75791,-0.68732,-0.91032,0.25431,-0.86442,-0.93718,0.083885,0.67128,0.6039,-0.11694,-0.392
0.4005,0.31153,0.70462,-0.37152,0.80171,-0.12034,-0.027396,-0.29791,0.81707,0.65234,0.44075,0.12323,0.23825,-0.31682,-0.26345,-0.8795,0.7926,0.31469,0.30135,0.86349,-0.33114,0.80527,-0.49744,0.412,0.94403,-0.9503,0.74676,0.20527,-0.5591,0.12524
0.24872,0.003708,0.2001,-0.14546,-0.11137,-0.49402,0.56855,-0.037294,-0.83554,0.84594,0.62689,-0.94022,0.58091,-0.25418,0.6139,-0.59333,0.45542,-0.46792,0.9489,-0.66141,-0.30474,0.060657,0.54469,0.11798,0.32202,-0.56814,0.49643,-0.76382,0.41509,-0.26992
0.4217,-0.337,0.11912,-0.13066,0.95353,-0.39724,0.92662,0.32174,-0.15754,0.37449,0.6231,-0.3371,-0.65521,0.11951,0.39872,0.85806,0.1889,0.83074,-0.57122,0.61032,0.20284,-0.23136,-0.12613,-0.010182,0.28776,-0.93743,0.87604,-0.27529,0.75704,-0.63722
-0.74568,-0.50281,0.88817,0.1024,0.252,-0.45833,0.87422,0.34927,0.23206,-0.33951,0.54851,0.3755,0.37145,0.037633,0.48435,0.91411,-0.79957,-0.093772,-0.82276,-0.83132,0.35488,-0.4273,-0.88929,0.41366,-0.614,-0.23252,-0.85502,-0.42839,-0.72591,0.36416
0.34637,0.53147,-0.38466,-0.89825,-0.011189,0.19158,-0.94305,0.82843,-0.85224,-0.54016,0.58272,-0.18531,0.94177,-0.29488,-0.11783,0.71456,-0.37337,-0.24272,0.26222,0.81808,0.70966,-0.16253,-0.59366,0.56277,0.60288,0.25393,-0.49892,-0.60891,-0.026693,0.51232
0.13164,-0.29321,0.013166,0.76518,-0.63905,-0.44016,0.10993,-0.036915,0.68023,-0.54568,-0.59857,0.15816,-0.59184,-0.70717,0.7407,0.47964,0.71195,0.69568,-0.71248,-0.27029,-0.4611,0.78536,0.39444,-0.59159,-0.21227,0.69757,-0.7951,0.093114,-0.10102,-0.034326
0.3712,-0.4815,-0.87185,-0.7704,-0.51472,-0.52788,-0.96715,0.6189,0.039396,-0.89789,0.55668,-0.7811,-0.56074,-0.19318,-0.54353,0.75633,-0.10187,0.75601,0.28885,-0.94091,0.54487,-0.37118,0.90498,0.12608,0.51727,0.98507,-0.43522,-0.92908,0.23814,0.28058
0.27781,-0.24662,-0.59414,0.23454,-0.12118,0.24382,0.49879,-0.94492,-0.85706,-0.90049,0.34871,0.12457,-0.12359,-0.41859,-0.52847,0.25041,0.32046,-0.48021,-0.90752,0.84084,-0.72142,0.76259,0.89584,-0.77088,0.14493,-0.47835,0.25154,-0.025294,-0.37781,-0.85435
-0.61252,-0.69222,0.53482,0.1901,0.43745,0.76995,0.65885,-0.14463,0.84999,-0.12092,-0.64942,0.45871,-0.9398,0.026242,-0.071394,0.69865,-0.026252,-0.34592,-0.18205,-0.085067,0.9809,0.67504,-0.53688,0.14137,0.6749,0.27512,0.51765,0.3161,0.13508,-0.62176
-0.39834,0.70687,-0.18648,-0.96666,-0.095816,-0.097328,-0.12223,0.49109,-0.69427,-0.27989,-0.070027,-0.69924,-0.47808,0.18696,0.86405,0.038616,-0.94578,0.9161,0.57817,-0.89038,0.88003,-0.11887,-0.092397,-0.3458,0.10873,-0.7534,0.58385,0.30393,0.86557,-0.87896
0.22624,0.033721,0.12228,0.96834,0.83876,0.81499,-0.68934,0.54696,0.7309,0.79141,0.47642,-0.80441,-0.44978,0.70909,-0.85882,-0.47645,0.24818,0.44562,-0.11252,0.57314,-0.75584,-0.046971,0.30428,0.28806,-0.6175,0.81475,0.19099,0.13024,-0.67632,0.16771
-0.28884,-0.69527,-0.40329,0.2568,0.80365,0.14377,-0.20356,0.92237,0.1994,0.5594,0.57539,0.15065,-0.27127,0.93806,-0.80818,-0.25363,-0.83729,-0.5819,-0.29946,0.60155,0.34103,-0.83241,0.35157,-0.67869,-0.15154,-0.36835,0.64897,-0.38716,0.94768,0.97966
0.92119,-0.53382,-0.1949,0.13884,-0.28351,-0.57432,-0.57921,-0.56896,0.31307,-0.93221,0.14599,0.22374,-0.82989,-0.31951,-0.80142,0.060893,-0.57533,0.31757,-0.078949,-0.40612,-0.10372,0.5035,-0.62623,0.37196,0.6413,0.64472,0.8988,0.0049817,-0.11317,-0.43912
-0.97392,-0.96248,-0.83704,0.79606,-0.74401,-0.27907,-0.50911,-0.25059,-0.60485,0.22136,-0.67142,-0.10201,0.56969,-0.74733,-0.7452,0.59838,-0.91016,-0.80775,0.026665,-0.65819,-0.99785,0.087465,-0.81179,-0.1947,0.71446,-0.67858,-0.20114,0.88532,-0.33659,-0.68289
-0.44555,0.59941,-0.30625,-0.56597,-0.3029,-0.68759,0.28716,0.54739,-0.51392,-0.58342,0.83397,0.98541,0.74339,-0.59354,0.42805,-0.47028,0.39157,0.80568,-0.52092,0.010987,-0.38992,0.37263,-0.4513,0.21546,0.26967,0.68836,-0.60924,-0.070075,0.63059,-0.73995
-0.6882,0.33316,-0.99632,-0.084476,-0.80731,0.020875,-0.9163,-0.98615,0.35238,0.88106,-0.87313,-0.61877,0.52377,-0.27657,0.083854,0.82675,-0.04191,0.16458,0.92477,0.53958,0.91879,0.57036,0.41685,-0.71776,0.79784,0.6321,-0.5497,-0.70429,-0.31564,0.72452
-0.39586,0.091395,-0.10623,0.30766,-0.31356,0.93008,0.56922,-0.64735,-0.86164,0.14107,-0.0050661,0.015599,-0.48451,0.71247,0.99266,-0.41675,0.87752,0.021627,0.70627,-0.50382,-0.97081,0.25538,0.25525,-0.096055,-0.57397,-0.23348,0.37873,0.95562,0.64023,0.9946
0.78709,0.22205,-0.35956,-0.61654,-0.48647,0.40554,0.78098,0.26868,0.71889,0.82277,0.25708,-0.96292,0.54406,-0.65206,0.72541,-0.34095,0.27105,-0.74927,0.33383,-0.13807,0.8191,0.38775,0.72375,-0.15147,0.91637,0.62519,0.48259,0.9791,-0.7586,-0.17629
-0.82518,-0.41631,-0.18768,0.46545,-0.57872,-0.052608,0.77355,0.21388,0.74255,0.45879,0.55592,0.96287,-0.32798,0.26338,-0.57119,0.15003,-0.28608,-0.25633,0.56186,-0.29756,0.39209,-0.58254,0.36335,-0.31961,0.40502,-0.48135,-0.96928,-0.84493,-0.0054094,-0.56369
-0.0473,-0.094798,0.34999,0.81992,0.53149,0.95313,0.62621,0.28569,0.0095686,-0.92013,-0.35878,-0.022919,-0.52654,0.80965,-0.54072,0.55079,-0.54751,-0.52694,-0.53514,0.2071,0.25779,0.23585,-0.69718,-0.58724,-0.16503,-0.40038,0.57009,0.4078,0.0032643,0.29186
-0.33517,0.0072003,-0.060189,-0.04006,-0.61812,0.65707,-0.56507,0.48097,-0.88724,-0.13404,0.38292,0.79682,-0.055638,0.54121,-0.92154,0.0015792,-0.47244,0.87059,-0.63845,-0.36374,0.85795,-0.75308,0.54286,-0.73658,0.67507,-0.94108,0.67835,-0.024738,-0.78799,-0.018549
0.77193,0.040849,0.17346,0.55669,-0.31899,-0.045752,-0.74037,0.77706,-0.095344,-0.5895,-0.4793,0.74849,0.76536,-0.20362,0.23732,0.85219,0.042624,0.3795,-0.99856,-0.92614,-0.23027,-0.76719,0.81474,-0.41026,0.92147,0.47464,0.62893,0.29871,0.63836,-0.69404
-0.18981,-0.47601,0.20591,-0.49068,0.38758,0.22449,0.45121,0.79136,-0.86926,0.61081,0.87202,-0.15907,-0.605,0.053092,0.15247,0.5592,-0.61259,-0.44483,-0.36108,-0.74939,0.67084,0.6739,0.42395,-0.14696,-0.2766,-0.50699,-0.60893,0.33907,0.83918,-0.1518
0.7437,0.11518,0.4378,0.72543,0.15368,-0.27506,-0.17004,-0.32778,0.7682,-0.94989,-0.45833,-0.088352,-0.28564,0.31186,0.26787,0.48466,0.12144,0.83169,-0.90073,-0.60554,0.8952,0.39737,0.22272,-0.038877,-0.22512,-0.094644,-0.14722,-0.99528,-0.54692,0.24616
-0.29698,-0.61006,-0.2185,0.33289,0.61494,0.14022,-0.86863,-0.30799,0.71045,-0.050582,-0.49438,-0.95283,0.33532,0.57571,0.14007,0.8345,0.29271,-0.045493,0.20889,0.87766,0.23352,-0.96849,0.047326,-0.34112,0.2805,-0.73598,-0.63361,0.4714,-0.60172,0.90376
-0.99823,0.35175,-0.3276,-0.84903,-0.47073,-0.20262,-0.91725,-0.32836,-0.83465,0.36086,-0.93072,0.078885,-0.73372,0.76351,-0.91066,-0.72397,0.20546,0.013527,0.28739,0.60239,0.77195,0.41567,0.66088,-0.11964,0.9567,0.40225,0.086547,-0.60393,-0.45468,-0.80903
-0.091296,0.069744,0.72952,-0.45396,0.65118,0.10579,-0.13226,-0.069197,-0.33959,0.98819,-0.7903,-0.9761,0.7122,-0.88137,0.085147,0.63392,0.062019,0.86174,-0.22465,-0.035072,-0.86797,-0.40462,-0.29668,-0.946,0.88269,0.38078,-0.96234,0.22249,0.64389,-0.78109
0.52944,0.46337,0.10373,-0.99738,-0.34065,0.16551,-0.90614,0.035381,-0.13917,0.54147,0.4125,0.58126,0.74517,0.51374,0.78846,-0.51188,-0.088144,-0.013328,0.6062,0.59645,-0.39053,0.52653,0.31629,-0.76539,-0.86915,-0.28068,-0.66378,-0.37246,-0.19176,0.43842
-0.41534,0.86011,0.52244,0.89339,-0.26202,-0.68293,0.60733,-0.51525,0.24551,-0.99911,-0.9927,-0.78991,0.91136,-0.67533,0.24859,-0.79975,0.92832,-0.48464,0.14002,-0.83116,-0.12375,-0.39551,0.47212,-0.53648,0.80576,0.58765,-0.39253,-0.75134,0.9812,0.6633
0.043156,-0.80727,-0.30066,-0.6942,0.51965,0.61308,-0.10522,0.38802,-0.20912,0.78476,0.4273,-0.78683,0.036059,0.057125,-0.39198,-0.23592,-0.96731,-0.42129,0.24772,-0.25791,-0.34055,0.93525,-0.97184,-0.92118,0.19139,-0.14949,0.26413,0.97447,-0.065506,0.64427
-0.98845,-0.67093,0.66188,0.49302,-0.019432,-0.85817,-0.24981,0.91401,0.62697,0.090993,-0.51939,0.9093,0.3074,0.36347,0.67143,-0.81327,0.89219,0.44779,-0.53845,0.86765,-0.62405,0.86182,-0.99768,0.43447,-0.28332,0.10213,-0.81764,-0.89831,-0.029407,0.70059
-0.75902,0.5132,0.62831,0.21496,-0.64024,-0.24325,-0.61453,-0.24431,-0.85846,0.39442,-0.92409,0.22576,-0.36585,-0.752,-0.36657,-0.33494,0.82141,-0.81513,0.17035,-0.068313,-0.41794,-0.45796,0.82363,-0.65402,0.013114,0.53726,0.33163,0.66063,0.98207,0.069322
-0.67764,-0.43536,-0.090775,0.57391,0.4308,0.90174,-0.96101,-0.63517,0.53921,-0.4797,0.84357,-0.42432,0.088423,0.35433,-0.72293,0.85976,0.9276,0.10386,0.61484,-0.78669,-0.8677,-0.80118,-0.053735,0.32516,0.61388,-0.86921,0.59802,0.45793,0.32701,0.0089674
-0.34611,0.057915,0.61007,-0.52001,-0.10748,-0.14813,-0.2431,-0.79372,0.72938,-0.025857,-0.9082,-0.6371,0.71752,0.30605,0.8423,0.17821,-0.31243,0.93623,0.35973,-0.007502,-0.83191,0.78764,-0.15206,0.51306,0.14598,-0.54658,-0.27819,0.73378,-0.2408,0.13431
0.29303,-0.50478,-0.24946,-0.6699,0.2909,0.53736,0.22652,-0.31234,-0.62071,0.045517,-0.2976,0.14013,-0.89378,0.41861,0.39989,0.32069,0.70587,-0.48213,-0.40152,0.74326,-0.98462,-0.43162,0.070217,0.47868,-0.60198,-0.89329,-0.80535,-0.14895,-0.44657,-0.012741
0.24592,-0.9958,-0.41498,-0.77468,-0.85704,0.10109,0.63247,-0.8358,-0.90271,-0.95109,0.46004,-0.46784,-0.17991,-0.47714,0.82901,0.68504,0.48519,-0.40119,0.29216,0.45752,-0.39615,-0.081392,0.12622,-0.29404,-0.93775,-0.13739,-0.86481,-0.61482,0.36659,0.95749
0.71637,0.71167,0.78344,0.35377,-0.91373,-0.22349,-0.22761,-0.071993,-0.24095,-0.36696,0.57045,-0.55357,0.23384,-0.58952,0.6195,0.063733,0.084037,-0.41284,-0.48414,-0.099181,-0.98581,-0.76954,0.057892,0.22768,0.04308,-0.84349,-0.092341,-0.040765,0.69148,0.35055
0.89915,-0.57378,0.053248,-0.69909,0.7648,-0.21566,-0.017295,-0.8919,0.87223,0.81451,-0.40134,-0.98959,-0.70852,0.60334,-0.84779,-0.10018,-0.89917,-0.78892,0.43011,-0.4062,-0.6232,-0.52461,-0.30076,-0.10248,-0.9091,-0.82943,0.15389,-0.28686,-0.20469,0.34582
0.99581,-0.11871,-0.86286,0.27921,0.062777,0.63821,-0.85652,-0.55173,0.40082,-0.11879,0.53641,-0.23114,-0.17248,0.93859,0.55746,-0.17701,0.22568,-0.090611,0.11704,0.10527,0.17576,0.57219,-0.82244,-0.062947,0.31072,-0.7182,-0.31816,0.61673,-0.39333,0.83801
0.81304,0.59779,-0.17194,-0.16577,0.12188,-0.88165,-0.37088,-0.45026,-0.90092,0.75228,-0.91688,0.8001,0.4904,0.89936,-0.86429,-0.64873,0.61659,0.59468,-0.66717,0.93043,0.067221,-0.65777,-0.91149,-0.56672,0.78143,0.39501,0.90527,-0.5025,0.74421,0.84685
-0.083038,-0.94097,0.35849,-0.02996,0.36689,0.9162,0.52858,0.96956,0.53949,0.51024,-0.80208,-0.28276,-0.15128,0.77741,-0.49285,0.92092,0.55417,0.27309,-0.56216,-0.48663,-0.78742,0.70958,-0.96893,0.19307,0.15203,-0.6621,-0.16678,0.1169,0.2001,0.17126
-0.57132,-0.78007,0.56878,0.32689,-0.85261,0.10378,0.54629,0.35605,-0.5433,0.56683,0.79805,0.68911,0.054529,0.096806,-0.70768,0.73355,0.74439,0.86844,-0.55892,-0.081548,0.9844,-0.7582,-0.66682,-0.55396,-0.67788,0.56505,-0.50851,0.4482,-0.82245,0.10094
-0.53766,-0.76711,0.97873,-0.059993,-0.0085338,0.95604,-0.78769,-0.26271,0.53717,0.89009,0.15428,-0.47244,0.33804,-0.36357,0.83254,0.4243,-0.82145,-0.73782,0.61814,-0.49413,0.57441,0.59316,0.41085,-0.44386,0.33367,-0.967,-0.52911,-0.70232,-0.15544,-0.72439
0.23068,-0.92676,-0.32261,0.61495,0.042732,-0.96378,0.72087,0.89563,0.35591,0.97909,-0.97621,-0.93614,-0.28781,0.15789,-0.42998,0.76682,-0.21309,-0.81845,0.98174,-0.39368,0.32315,-0.31897,0.57776,0.9113,-0.25099,0.14979,0.03927,0.5358,-0.82078,0.1991
0.19232,0.50536,-0.72404,-0.75865,-0.14437,0.68415,0.45764,-0.24298,-0.68153,-0.44857,0.58874,0.59599,0.2196,0.97976,0.22646,0.39718,0.47981,0.17161,-0.19467,-0.95846,-0.81578,0.79205,0.2877,0.95913,0.12466,-0.6208,0.61207,-0.21359,-0.42936,0.53269
0.26482,-0.19719,-0.61088,0.99105,-0.37555,0.27063,-0.58089,0.73124,-0.24432,0.203,-0.42333,-0.44699,0.39904,-0.42501,-0.70478,0.89384,0.05554,0.29943,-0.90644,0.53239,0.22967,0.37436,-0.49488,-0.69218,-0.35581,0.9854,-0.69227,0.87524,-0.83103,0.094418
0.040198,-0.60365,-0.66365,-0.54603,-0.088928,0.074165,0.032803,-0.35726,0.30879,0.066073,-0.071632,0.3244,-0.74571,0.47397,0.46132,0.93051,0.77331,0.72252,0.19979,0.1527,0.7706,-0.68508,-0.85157,0.50565,0.66718,0.046826,-0.95355,0.33372,0.0039551,-0.47245
0.54848,-0.65555,-0.4178,-0.26628,-0.59961,-0.020833,0.7644,-0.59051,0.06551,0.95188,-0.38266,-0.79857,0.72908,-0.059673,0.90369,-0.31518,-0.49762,-0.66173,-0.76263,0.93213,-0.8099,0.98301,-0.70104,0.38789,0.96566,-0.40594,0.71826,0.53079,0.071507,-0.54996
0.63341,0.30264,-0.14905,-0.15189,-0.23631,0.73804,-0.96274,-0.40789,-0.46991,0.90879,-0.51702,0.60553,-0.43417,-0.13868,-0.48887,-0.66351,-0.072362,-0.33725,0.97393,0.38957,0.21139,0.19312,-0.49544,0.34461,0.24501,-0.83733,0.47375,0.69132,0.030248,0.24449
0.88713,0.059956,0.64948,0.29556,-0.59735,0.97484,0.4745,-0.20066,0.69617,-0.39671,0.25448,-0.67525,-0.5232,0.35368,0.9199,0.29338,-0.54116,0.40873,3.8264e-05,0.34334,-0.50608,-0.83327,0.8785,0.58191,-0.46625,0.2412,0.85157,-0.35381,0.27366,-0.2144
0.051926,0.40737,-0.70948,-0.43823,0.28313,0.6591,0.72497,0.82786,-0.63674,0.48731,0.80988,0.70134,0.28964,-0.95482,-0.66027,-0.24115,0.32522,-0.59779,-0.73047,-0.9727,-0.15414,-0.41839,-0.3693,-0.73742,0.2838,0.050375,-0.78054,0.61066,-0.73002,0.76137
-0.50899,0.81659,0.7181,-0.89695,0.2116,-0.78441,0.077385,-0.2812,-0.2585,0.34029,0.99204,0.62013,0.40994,-0.57294,-0.078345,-0.0019818,-0.0288,-0.22055,0.11504,-0.47987,0.36831,-0.43086,0.25599,-0.40958,-0.70205,-0.22689,-0.8898,-0.92009,0.65179,-0.9829
0.083993,-0.66731,0.33217,0.33753,0.65768,-0.15645,0.55702,-0.38746,-0.72022,-0.22801,0.45364,-0.15634,-0.94809,0.94023,-0.20459,-0.64961,0.19207,-0.0025313,-0.59497,-0.050835,-0.82469,-0.9073,-0.6591,-0.053394,0.55884,-0.98919,0.77849,-0.98349,0.29878,-0.07524
-0.86664,0.30799,0.42931,-0.36293,-0.2021,-0.085398,-0.60256,-0.73095,0.86581,0.98476,-0.83287,-0.68842,-0.89797,-0.12171,0.059861,-0.70353,0.55386,-0.12526,-0.15553,0.007467,-0.97767,-0.74816,0.74523,0.34196,0.46044,0.031123,0.88408,-0.37239,0.48091,-0.75243
0.45183,-0.5367,-0.77228,0.9218,-0.10166,-0.1887,-0.78706,-0.57019,-0.37883,-0.38279,0.904,0.19924,0.36511,-0.98798,0.60636,0.53584,0.18393,-0.64558,0.94826,-0.62715,-0.24506,-0.28292,0.95556,0.73537,-0.089607,0.17862,-0.97422,-0.2942,0.85461,-0.93686
-0.25596,0.79955,0.46706,-0.17679,0.028397,-0.69318,0.1946,0.38486,-0.66297,0.0050743,0.79986,-0.39689,-0.11401,-0.45502,0.99233,0.30155,0.97458,0.77449,-0.39349,-0.71265,0.21279,-0.37455,-0.83983,-0.93142,-0.20708,0.91263,-0.61299,-0.45891,0.227,0.65618
0.50374,0.31292,0.92845,-0.98791,0.71292,0.45071,0.55048,0.98215,0.78613,0.46727,-0.30093,-0.70294,0.64478,0.50229,0.34836,0.92322,-0.75594,0.6551,-0.76566,-0.38279,-0.78185,0.26606,0.025206,-0.50302,0.93088,-0.85906,0.7861,-0.35296,0.29451,-0.44537
-0.088436,-0.79299,0.25584,-0.14121,0.097376,0.35272,-0.44299,0.88476,0.25199,-0.63961,0.0015848,0.30464,-0.41062,-0.30041,-0.76591,-0.49997,0.34534,-0.036472,-0.75488,0.63052,0.41638,0.37309,0.19059,0.92791,0.73341,-0.70273,-0.82552,0.79977,-0.058899,-0.46448
-0.71038,0.85357,-0.37011,0.76429,0.65252,-0.49637,-0.88533,-0.73667,-0.21326,-0.61771,0.62727,0.38763,0.89915,0.87724,0.66199,-0.90064,0.93743,0.064827,-0.3757,-0.50316,0.79685,-0.35064,-0.61906,0.70635,-0.27716,-0.12147,-0.9361,-0.58553,-0.69833,-0.91345
-0.90913,-0.97963,-0.086801,-0.6039,-0.36061,-0.30484,0.55629,-0.086095,-0.78396,0.072659,0.5403,0.71654,0.05825,-0.88783,-0.47407,0.91746,0.13233,0.61598,0.43672,-0.99736,-0.8032,0.64639,-0.4994,-0.76038,0.3338,-0.51926,-0.55096,-0.51418,-0.77013,-0.58606
0.22055,-0.2273,-0.17987,0.19119,-0.68888,-0.82252,-0.65493,0.61315,0.95478,0.99948,-0.30898,-0.63504,-0.63519,0.10304,-0.19576,0.12606,0.12973,0.53009,-0.35693,-0.23457,-0.48494,-0.36207,-0.7444,0.27406,0.30288,-0.39528,0.3711,-0.75547,0.88021,-0.028657
0.87211,0.28631,0.34962,0.76321,0.054068,0.63566,-0.059812,0.21296,-0.022788,-0.76762,-0.57896,0.49287,-0.55812,-0.19023,0.38121,0.84111,-0.48071,-0.46983,-0.49046,0.43319,-0.038895,0.29675,0.12144,0.85195,-0.83709,-0.33205,-0.38006,0.79105,0.082512,0.52397
0.72268,-0.5721,-0.32368,0.83031,-0.26965,0.52782,-0.18313,-0.64414,0.24969,-0.5124,-0.58053,0.08749,-0.58637,0.38895,-0.24595,-0.86703,0.039503,-0.16012,-0.54488,-0.99893,0.011313,0.59456,-0.83454,0.021688,0.053541,0.34498,-0.13824,-0.66076,-0.90503,-0.35753
-0.53826,-0.48775,-0.45438,0.68946,-0.21731,0.44497,-0.85401,-0.43946,0.34002,-0.13386,0.0074165,0.86512,0.66986,0.25641,-0.87548,-0.85979,-0.16283,0.2644,-0.75276,-0.73104,-0.048744,-0.41837,0.66501,-0.37841,-0.84639,-0.47396,-0.38664,0.17186,-0.81513,-0.41233
-0.16036,0.33313,0.4998,0.31696,0.81334,-0.62943,-0.18479,-0.9061,-0.63064,-0.67956,-0.85676,-0.90697,-0.60815,-0.24041,-0.33118,-0.41338,-0.53187,-0.021968,0.75949,0.77525,-0.21226,-0.67488,0.96313,0.18558,0.51188,0.69141,-0.91164,0.99282,-0.84129,0.89277
0.50808,-0.060689,0.90928,0.27005,-0.14996,-0.4226,0.76649,-0.92097,-0.77609,0.55041,-0.78139,0.76623,0.60872,-0.69003,-0.76541,0.17099,0.92916,0.72105,-0.89089,0.21567,-0.90575,-0.48779,0.22105,0.32748,-0.15492,-0.54852,-0.8318,0.37381,-0.087185,-0.92628
0.15602,0.18187,0.98282,0.70164,0.72731,-0.57318,-0.66321,-0.49303,0.32612,-0.86954,0.59701,0.83725,-0.31984,-0.32344,0.63904,0.12345,-0.93807,-0.96189,-0.3863,-0.013558,0.32391,-0.1873,0.008219,-0.10683,-0.095113,-0.68353,0.34347,-0.34187,-0.32863,0.90062
0.6901,0.34003,-0.067854,0.11902,0.671,0.52509,-0.69265,0.81341,0.20725,0.18951,-0.2562,-0.52837,-0.26982,0.18812,0.13928,0.07489,0.40498,-0.38457,0.83047,-0.37782,0.95942,-0.59861,-0.036616,0.99336,0.70954,0.99231,-0.30998,0.74277,-0.74397,-0.36813
-0.056345,0.5131,-0.42348,0.78151,0.84891,0.020605,-0.85094,-0.44014,-0.44556,-0.4953,0.20285,0.40476,0.8797,-0.14041,-0.59681,-0.32375,-0.6268,-0.87724,-0.013535,0.9707,0.15178,0.25471,-0.25949,0.80659,0.53031,-0.77773,-0.13832,-0.24965,-0.19631,0.98285
-0.57053,0.93439,-0.41065,0.66085,0.085188,-0.26729,0.74016,-0.42122,0.46276,-0.22671,-0.48621,0.32968,0.97342,0.14003,0.78813,-0.60955,-0.54629,0.90347,-0.058705,0.1924,0.59415,0.33497,-0.57212,-0.64321,0.30091,-0.71902,-0.54601,-0.44068,-0.15759,0.28227
0.63993,0.69581,-0.1496,0.21089,0.15873,0.39183,0.35889,0.32605,0.89488,-0.53025,0.7421,-0.47723,-0.62849,-0.081229,0.10766,0.48256,0.55002,-0.1962,0.54818,-0.56123,-0.31012,-0.49269,-0.92346,-0.18634,-0.24062,0.51895,-0.60446,-0.96697,0.095532,-0.6369
-0.15953,-0.28774,0.35266,0.59691,0.058097,-0.050309,0.94038,0.50049,0.67996,0.41401,-0.42016,0.63584,0.4534,0.53193,0.23795,-0.90787,-0.2388,-0.73074,0.39377,-0.97111,-0.051636,0.35509,0.073105,0.86477,-0.98596,-0.84389,-0.42976,0.55488,-0.29875,-0.3275
-0.17733,-0.91913,-0.46832,0.29441,0.53479,-0.0087795,-0.59224,-0.25649,0.70436,-0.61657,-0.54883,0.075191,-0.3623,0.47408,0.63365,0.98597,-0.053642,-0.67077,0.58677,-0.76395,0.17571,-0.42444,-0.93005,0.99601,0.26727,0.028342,0.49922,0.40626,-0.72075,-0.97281
-0.38678,0.85338,-0.80516,0.80474,0.40635,-0.28493,-0.85111,0.06522,-0.87162,-0.02421,0.98076,-0.64798,0.22076,0.077456,-0.29867,-0.1016,-0.50496,-0.72219,-0.89198,-0.076858,-0.56863,0.84161,-0.2826,-0.68257,-0.85674,-0.57704,-0.067333,0.44855,-0.58778,-0.19027
0.34002,-0.43192,0.68711,0.066445,-0.70909,-0.076128,-0.40112,0.47036,0.5452,0.62193,-0.29596,-0.4537,-0.44217,0.96491,-0.88937,0.64254,-0.087005,0.31344,0.13402,-0.5917,-0.51799,-0.90239,0.64798,0.96592,-0.18493,0.68835,0.76265,-0.059983,0.58262,0.1274
0.46829,-0.7493,-0.77887,0.1023,-0.76001,-0.90845,0.4043,0.5517,0.73514,0.47403,-0.70723,0.72262,-0.88756,-0.13988,0.28556,0.82356,0.15644,-0.85501,0.66606,-0.40018,0.37268,0.04989,-0.95089,-0.89396,0.87101,-0.5305,0.50833,0.56372,-0.55943,-0.08755
-0.14092,-0.73199,-0.20526,0.52695,-0.83953,0.58197,0.59582,-0.88002,-0.45007,-0.27642,-0.94543,-0.18371,-0.6338,-0.61642,-0.63432,-0.31817,-0.63395,-0.2052,0.37687,-0.96799,0.04715,0.2764,-0.51029,0.59199,-0.24359,0.96739,-0.81088,0.94186,0.39246,0.47462
-0.55203,0.26929,0.027952,0.24919,0.41316,0.89102,-0.25757,-0.66905,-0.46054,0.083656,-0.9709,0.40364,0.86719,-0.27963,0.25841,-0.42485,0.10525,0.67438,-0.37898,-0.83608,-0.43377,-0.40141,0.65494,0.49253,0.93136,0.014219,-0.66813,-0.40053,-0.8288,0.84648
0.79577,0.2531,-0.15035,-0.2877,-0.36087,-0.021265,0.51106,0.27565,0.24797,-0.6313,0.78581,-0.3042,0.10553,-0.6971,0.29728,0.89823,0.19432,-0.98373,0.30918,0.86744,-0.36907,0.5924,0.33527,0.37964,0.25467,0.007267,0.99139,0.054294,-0.98038,-0.049772
0.50499,0.32629,-0.98769,0.40172,-0.64461,0.62476,0.31139,0.94159,-0.38506,0.51801,0.60793,0.22338,0.56242,-0.26922,-0.20782,0.51886,-0.80148,-0.59674,0.20752,-0.65247,0.93479,0.52156,0.25741,-0.97491,0.58226,0.087398,-0.38882,-0.4513,-0.59966,0.54747
0.26232,0.030678,0.76746,0.44163,0.4602,0.084707,0.34242,-0.50152,0.55268,0.769,-0.50669,-0.1668,0.058701,-0.23778,-0.50581,0.77564,-0.78071,0.63107,-0.88589,0.59796,-0.025981,-0.28913,-0.77899,0.071415,-0.27048,0.54238,0.20454,-0.23729,-0.71603,-0.80494
-0.51481,-0.71479,-0.96473,0.65812,0.84845,0.56721,-0.73542,0.43916,0.44136,-0.59627,-0.63201,-0.98414,0.065466,-0.072048,-0.34573,-0.30278,-0.6613,0.053568,-0.1804,0.46471,-0.51447,-0.14118,0.66665,0.59871,0.66302,-0.41059,0.86364,-0.34187,-0.99932,0.77327
0.0070751,-0.80515,-0.44868,0.7009,-0.31228,-0.11975,0.20033,-0.99668,0.99787,-0.017193,-0.48979,-0.074601,-0.75556,0.18859,0.5984,-0.84198,0.95473,0.085048,-0.67963,0.23325,0.28231,-0.15875,0.31756,-0.92716,0.20021,0.11756,0.14738,0.24711,0.34132,0.023023
-0.062301,-0.23688,0.73068,-0.72274,0.19218,-0.49014,0.92134,0.2479,0.12993,-0.85923,-0.95432,-0.49519,-0.73235,0.30298,-0.8368,-0.16846,-0.30359,0.80427,-0.38255,-0.21859,0.3563,-0.72205,-0.37429,-0.74002,0.7283,-0.24593,0.79196,-0.95283,0.34703,-0.067782
-0.3161,-0.14112,0.55093,-0.31291,-0.31402,0.54136,0.56572,-0.97433,-0.1908,-0.68688,-0.54493,-0.35307,0.51458,-0.72226,-0.75112,-0.80966,0.90966,0.83759,0.67784,-0.19123,0.46775,0.94739,0.14694,-0.45868,0.67601,0.2083,0.17964,0.034087,0.35449,0.3358
-0.25132,0.72454,-0.68149,0.81205,-0.26987,0.018629,-0.074915,0.52447,-0.4124,-0.81725,0.99011,0.57072,0.17937,0.9076,-0.77574,-0.55518,-0.2553,-0.74734,0.78399,-0.31648,-0.36165,-0.1089,0.73606,0.24369,-0.98342,-0.418,0.47243,-0.97239,0.49075,0.35019
0.64857,-0.79708,0.82695,0.83126,0.080326,-0.63376,0.97523,0.64741,-0.48015,-0.8267,0.34265,0.22288,0.32985,-0.018218,-0.90458,-0.11331,-0.32808,-0.73318,-0.94515,-0.9416,0.64189,0.59375,-0.90633,-0.029317,-0.64143,-0.48636,-0.48219,0.94977,0.71116,0.39635
-0.33464,-0.90163,0.20745,-0.40253,-0.57642,0.32316,-0.20551,-0.56888,0.54388,0.43074,0.25767,0.36659,-0.81728,-0.2168,0.1726,-0.75115,0.31729,0.5887,0.51732,-0.56198,0.83369,0.32949,-0.66415,-0.55836,0.65834,-0.029685,-0.29425,-0.92852,-0.89099,-0.74492
-0.094135,0.79925,0.24425,0.23628,0.2816,0.47525,0.17201,-0.29608,-0.095888,-0.97922,0.42211,-0.93241,0.05717,0.51333,-0.19118,-0.52905,0.61642,0.34614,-0.59011,0.66959,-0.90686,0.43079,0.54776,-0.231,0.35551,0.86283,0.12402,0.46698,0.53881,0.008627
0.15285,0.9273,0.075381,-0.13124,-0.66511,0.17241,-0.74147,0.56471,-0.42532,-0.76001,-0.27124,0.48296,0.39607,-0.31189,-0.20978,-0.72484,-0.1171,0.81054,0.92292,-0.89246,-0.92885,0.88731,-0.41434,0.38528,-0.42696,-0.93014,-0.30934,-0.61329,-0.74089,-0.7273
0.67878,-0.76762,-0.67177,0.21146,-0.315,0.59942,-0.95995,0.20884,0.51563,-0.64778,-0.69027,0.94495,0.76701,0.91581,-0.8645,0.37461,0.76435,0.418,-0.14406,0.015424,0.0075806,-0.34982,-0.20747,-0.23531,-0.87339,-0.75353,-0.17203,-0.65557,-0.68246,0.47736
-0.15943,0.64549,0.61918,-0.68673,-0.079577,-0.69105,0.54176,-0.26323,0.44393,-0.61449,0.95472,-0.64407,-0.87299,-0.91956,0.074499,-0.76065,0.11911,-0.92114,0.23793,0.56613,0.40587,-0.92487,-0.84644,0.53624,0.95926,-0.2878,0.76217,0.68886,-0.26951,-0.3677
0.84065,-0.81933,-0.80431,0.64246,0.29793,-0.55171,-0.84758,0.50634,0.83001,-0.74168,-0.87372,0.33387,0.36561,0.35905,-0.62934,-0.23208,-0.89807,0.018851,-0.18905,0.94621,0.012243,0.37983,0.071092,-0.29128,0.84976,-0.73326,-0.71881,0.27263,-0.31867,-0.66874
-0.48205,0.54311,0.6665,-0.61286,-0.41955,0.35688,-0.28714,0.26953,-0.80551,-0.52002,-0.74093,0.45959,-0.008435,0.65726,-0.69611,0.094335,0.92905,0.83102,0.92746,-0.74338,-0.90565,-0.63363,0.99451,-0.82015,0.031049,-0.27922,0.99594,0.73799,-0.61051,0.54403
-0.59956,-0.63153,0.24482,0.050084,0.067818,0.69628,-0.4885,0.86258,0.18803,-0.32902,0.45458,-0.40153,-0.62999,0.03194,0.24841,-0.47474,-0.57558,-0.76331,0.68559,-0.4399,0.94461,-0.8286,0.57606,0.58625,0.51904,0.040172,0.33115,-0.56728,-0.12102,0.58788
0.64049,0.0010382,0.13763,-0.15395,-0.94816,0.58796,-0.14635,-0.85308,-0.14418,-0.18058,-0.049282,-0.96248,-0.76468,0.95676,0.71869,-0.23374,0.51176,0.7943,0.69663,-0.89451,0.4964,0.6018,0.89414,-0.6465,0.047062,-0.76654,0.13161,0.92602,0.047218,0.92683
0.83583,-0.79256,0.52656,-0.70369,0.69659,0.6653,0.6239,-0.32074,0.19651,-0.52512,0.95598,0.99078,0.096495,-0.60303,0.76528,-0.80454,0.20557,0.29189,-0.85759,-0.20216,0.64163,-0.9734,-0.3113,0.80694,0.03441,-0.92827,-0.40139,-0.37508,0.50431,0.28097
-0.45993,-0.90796,-0.1103,0.63906,-0.0051653,0.62519,0.20497,-0.32587,-0.59034,-0.79553,0.40948,0.35421,0.72804,-0.78615,-0.26687,0.17569,-0.46702,-0.72241,0.54858,0.026477,-0.93215,0.21605,-0.34838,-0.10659,0.85698,-0.78424,0.88246,-0.6233,-0.16961,-0.55794
0.088862,-0.2768,-0.42527,0.13125,0.12115,-0.56511,0.32832,-0.74018,-0.052013,0.95684,-0.20164,0.49429,0.041189,-0.56394,-0.65201,-0.79732,-0.80252,-0.89592,0.14056,0.96005,0.92304,0.48644,0.60351,0.23252,0.22744,0.51032,0.87172,-0.16491,-0.38215,0.096774
-0.40555,0.43025,0.044514,-0.68247,-0.64013,-0.64729,-0.076916,-0.25615,0.16635,0.76008,0.22087,-0.68363,-0.41276,-0.83615,-0.52742,-0.68733,0.66396,0.081948,-0.69564,0.99628,-0.55212,0.93623,-0.6063,0.49601,0.8815,0.60154,0.001688,-0.20859,0.88046,-0.24028
0.23643,-0.57124,-0.24827,0.23842,0.77658,0.64392,-0.33474,-0.81596,0.94696,0.85639,0.96109,-0.53221,-0.85963,0.55933,0.87196,-0.61155,0.14009,0.18705,0.3871,0.97126,0.71976,0.24399,0.90487,0.79506,0.58762,-0.75738,-0.34789,0.068172,-0.51866,-0.9172
-0.51001,-0.94035,0.57925,0.83676,0.14474,0.79301,-0.72269,-0.88317,-0.72721,-0.65246,0.35585,-0.11002,-0.80144,-0.6309,-0.65249,-0.51182,-0.49662,-0.15449,-0.25721,0.88488,-0.15459,-0.68866,0.70463,-0.84625,0.22458,0.90001,0.44687,0.81856,0.89456,0.097822
0.61419,-0.74596,-0.040037,0.25727,0.57729,-0.48509,0.6339,-0.37332,-0.56514,0.32893,-0.75866,-0.15051,0.66437,-0.11329,0.7644,0.9224,-0.98977,0.49733,-0.8314,-0.58491,0.11196,-0.12218,0.63786,-0.75297,0.49755,0.54721,0.27081,-0.48364,0.56902,0.4791
-0.76515,0.13039,0.99321,0.38896,0.48737,0.77939,0.57345,-0.85724,-0.27137,-0.6915,-0.86288,-0.7366,0.97629,-0.4058,0.040124,0.43828,0.95455,-0.17915,-0.3893,-0.21846,-0.57288,-0.36745,-0.36337,-0.45687,-0.55033,-0.13013,0.21308,0.33688,-0.63071,0.85817
0.73575,0.077026,0.17898,0.10523,-0.31615,-0.76652,0.72932,0.56294,-0.51132,-0.24582,-0.11956,-0.64119,0.23823,-0.24636,0.61254,0.021537,-0.12652,0.20268,0.92207,0.32336,0.69292,-0.04526,-0.92967,0.55572,-0.30289,0.62125,0.17334,0.30362,0.73091,-0.9031
0.16574,-0.76058,-0.80075,-0.88821,0.67893,-0.86378,0.3085,0.1953,0.13917,0.093676,-0.37842,-0.014886,-0.98817,-0.80994,-0.54997,-0.52404,-0.68586,0.49058,-0.52741,-0.34678,-0.15933,0.29696,-0.56029,0.61875,0.49054,0.19818,-0.60777,-0.73373,-0.6102,0.71501
0.34877,0.81954,0.41172,0.55997,-0.93821,0.018536,0.88872,0.22956,0.88863,0.70668,-0.98637,0.96293,-0.3941,0.74865,0.82338,0.26297,0.21916,0.73953,0.050126,0.35879,-0.91736,-0.65738,-0.71619,-0.86271,-0.64228,-0.62124,-0.88985,-0.37685,0.24897,0.95501
-0.56617,0.045068,-0.15197,0.92088,-0.22876,0.76144,-0.99373,0.061143,-0.95,0.2356,-0.60756,-0.34123,0.13749,0.91819,-0.089228,-0.12173,0.12086,0.74493,0.55653,0.43692,0.11012,-0.89048,-0.94148,0.12376,0.74438,0.59078,0.60936,-0.21856,0.65691,-0.82283
0.30664,0.051441,-0.74757,0.42751,0.89879,-0.2222,-0.44246,-0.66854,-0.47133,0.028197,0.53136,-0.17444,0.72491,0.58677,0.7883,0.47551,0.78709,-0.47034,-0.62016,-0.2516,-0.18037,-0.61076,-0.91024,0.3176,-0.49196,0.11317,0.88125,-0.97774,0.14613,-0.66395
0.98248,-0.71906,0.6094,-0.021095,0.56962,-0.74985,0.8324,0.95812,0.49712,0.93188,0.97475,-0.059708,0.001151,0.067103,-0.9581,-0.27896,0.49571,-0.25621,-0.013946,-0.91657,0.53356,-0.89421,0.40405,0.44632,0.32451,-0.45205,-0.49733,-0.75948,0.10668,0.51067
-0.85688,-0.35248,0.89551,-0.90255,-0.090153,0.10289,-0.52211,0.15962,0.50022,-0.95331,0.48153,-0.67716,-0.77759,0.25235,0.95203,0.44701,-0.27915,0.94649,0.13305,-0.36165,0.5265,-0.39101,0.25795,-0.19427,0.28048,-0.48896,0.49213,-0.40455,0.48668,0.40717
-0.48385,-0.81054,-0.73632,0.062475,0.54102,0.62534,0.97581,0.29459,0.2396,0.40962,-0.2143,-0.74007,0.11021,-0.80263,0.074993,0.92456,-0.28944,0.38705,-0.33207,-0.52297,-0.89098,0.85679,-0.019229,0.38568,-0.12004,0.9735,-0.46701,0.18107,0.92089,-0.26973
-0.58796,-0.96721,-0.44089,-0.18597,0.33091,0.9415,0.46867,-0.44901,-0.6962,-0.96117,-0.20691,-0.14816,-0.38475,-0.1372,-0.057117,-0.93439,-0.76916,0.13099,0.82809,-0.025723,0.975,0.78401,-0.10372,0.52703,0.34153,0.96971,0.20494,0.19836,-0.35851,0.84608
-0.84435,-0.64787,-0.26793,0.99063,-0.96623,-0.86511,-0.62398,-0.58146,-0.39955,-0.85313,-0.64644,0.49032,0.73503,0.18562,0.51655,-0.7235,-0.44544,-0.44605,0.49676,0.021859,-0.59999,-0.69465,-0.20635,0.85996,0.3797,-0.22282,0.65569,-0.575,0.59092,-0.56327
0.70833,-0.84896,-0.59091,0.12745,0.70578,0.20855,0.35581,-0.20317,0.90401,0.1273,0.43169,0.6825,-0.23755,-0.48423,0.86218,-0.31472,0.051439,-0.20029,-0.57764,-0.80151,0.35171,0.8775,0.34662,-0.25454,-0.79185,-0.45774,0.53105,-0.061546,0.92979,0.8693
-0.54503,0.022306,0.84794,-0.93976,0.20248,0.73152,-0.98147,-0.19728,0.78551,0.23113,0.082242,-0.1303,-0.3138,0.13571,0.39252,-0.89808,0.30909,-0.065764,0.73094,0.83468,-0.25592,-0.050987,0.34283,0.085387,-0.23539,0.78742,0.15093,-0.68761,-0.49001,0.6264
0.70882,0.55827,-0.99777,0.17124,-0.28004,0.2568,0.35474,-0.37262,-0.90401,-0.64799,-0.81668,0.39522,-0.60874,-0.53673,0.47761,-0.61197,-0.31527,-0.084672,0.062821,-0.42157,-0.65983,0.156,0.69384,0.74489,-0.95628,-0.1258,-0.88627,0.25607,0.52178,-0.54076
-0.25663,0.26389,0.1502,0.48239,-0.59511,-0.07522,0.98855,0.37472,-0.20685,0.83397,-0.31267,0.41998,-0.072037,-0.96457,-0.54428,-0.88283,0.67653,-0.98669,-0.048339,-0.87173,0.32816,-0.38983,0.40278,-0.52583,-0.2642,0.80194,0.82805,0.40613,-0.81173,-0.66824
0.79767,0.2477,-0.78773,0.95231,-0.11879,-0.44677,0.26724,0.99747,-0.14428,0.10009,-0.17098,-0.7639,-0.49712,0.79747,-0.92627,-0.99711,0.0061371,0.21427,-0.21244,0.54551,-0.44016,-0.68692,-0.18078,0.38333,-0.045441,0.39605,0.92209,0.54849,-0.74247,0.56405
0.65516,-0.095736,0.3198,0.47268,-0.21693,-0.52278,-0.50439,-0.28679,0.85095,-0.71072,-0.14994,-0.30133,0.57176,0.16622,-0.93024,-0.63627,-0.94368,-0.73321,-0.81925,0.71009,0.83298,0.63706,0.96166,-0.89234,0.078876,-0.8134,-0.71774,0.62845,-0.54925,0.90687
-0.25432,-0.36474,-0.050661,0.82248,0.050062,0.43514,0.075792,0.94072,-0.45358,0.3813,0.11822,0.73731,0.38181,0.51609,-0.35973,0.57042,0.22151,-0.94812,0.42587,-0.75507,0.43112,-0.64645,-0.22668,-0.8701,0.085385,0.61488,-0.087248,0.93197,0.60591,-0.048693
0.37568,0.067877,-0.74899,0.76815,-0.38187,0.83924,-0.58171,0.82769,-0.9408,0.67029,0.036743,0.72101,-0.16509,0.097329,0.87691,0.83562,-0.96217,0.68079,0.90194,-0.70733,0.40951,-0.8218,0.995,0.11106,-0.50679,-0.48874,0.88223,-0.96759,-0.064589,0.7958
-0.52675,0.25997,0.47742,-0.79433,-0.23435,0.99317,-0.52593,0.59076,0.69453,-0.81823,-0.10378,0.68776,0.64149,0.98146,-0.82293,-0.01089,0.25077,-0.11469,0.871,-0.1506,-0.41428,-0.096657,-0.19418,-0.16882,0.47879,-0.18593,0.18091,-0.2675,0.65816,0.34332
0.48481,-0.30022,-0.65529,0.20509,0.70828,0.2302,0.57957,-0.94439,-0.65416,0.44563,0.41286,0.59799,0.76066,0.088411,0.94175,0.23489,-0.58309,0.69211,0.93376,-0.38324,0.80791,0.43993,-0.4203,0.36989,0.76077,-0.02149,0.29568,0.75114,0.78335,-0.72694
0.79186,-0.60773,0.55561,-0.62204,0.06844,-0.14666,0.38694,0.24131,0.7188,-0.63114,-0.18791,-0.90489,-0.095413,0.8435,0.054821,-0.085048,-0.73939,0.89604,-0.77428,0.83654,0.53369,-0.89091,-0.80746,-0.66133,-0.38376,0.34049,-0.22587,0.25596,-0.34968,-0.33187
0.79865,0.6973,-0.5093,-0.30051,-0.6906,0.23435,-0.59447,-0.1957,-0.4924,-0.15836,-0.24724,0.12763,-0.5015,0.017901,-0.61947,-0.48995,-0.057722,0.98121,-0.22069,0.70012,-0.21355,-0.10093,0.084769,-0.83629,0.18246,-0.885,-0.31336,0.55344,0.56837,0.84726
-0.086636,0.27066,-0.99825,-0.084708,0.72167,0.59974,-0.020212,-0.816,0.19773,0.080435,0.70205,-0.45364,0.50679,-0.14967,-0.66155,0.2706,0.94799,0.44366,0.91816,-0.1269,0.10997,-0.59333,0.94975,0.30257,-0.815,0.46673,0.89979,0.54531,0.42327,0.86277
0.62647,0.58013,0.21676,-0.13826,0.58883,0.10171,-0.74525,-0.41294,-0.25595,0.93593,-0.64284,-0.4957,-0.30236,0.63218,-0.37396,-0.79544,0.28572,-0.066986,-0.90058,0.10741,-0.92408,-0.50254,0.8855,0.27574,0.79534,-0.57709,0.25373,0.32052,-0.36109,-0.55839
-0.12296,0.47989,-0.18184,0.16446,0.38057,-0.82304,-0.044572,0.97486,0.35293,-0.78677,-0.08492,0.8891,-0.65709,0.89601,0.98384,0.099717,-0.44535,0.47128,0.11908,-0.58116,-0.46716,0.80686,0.031922,-0.75808,-0.25894,0.88011,-0.87473,-0.09268,0.33293,0.060944
0.013228,0.12196,-0.61923,-0.55553,-0.34949,-0.86307,-0.8564,0.53925,0.80927,-0.98656,-0.16544,-0.016919,0.32615,0.52111,-0.10295,-0.78397,0.59922,0.89969,0.24971,-0.53915,-0.98702,-0.14798,0.1204,-0.93599,-0.66328,0.3469,0.9705,0.11221,0.085791,-0.84658
-0.072704,0.41188,-0.0049018,-0.20859,0.51622,-0.038736,-0.17613,-0.95707,0.83675,0.44989,0.97289,-0.54114,0.83495,-0.84107,0.67518,-0.47278,0.70343,-0.91675,0.70227,0.69096,0.4183,0.67531,0.49058,-0.33101,0.70157,-0.12329,-0.050327,0.062554,0.44156,-0.9531
0.7849,0.71902,0.0092072,-0.81631,-0.27821,0.48083,-0.66207,-0.22495,0.49692,0.67517,0.80537,0.22063,-0.029462,-0.10605,-0.063003,0.24512,0.41394,-0.9373,-0.91106,-0.90675,-0.51639,-0.27979,0.020372,-0.1564,-0.07339,0.88582,-0.074192,0.32441,0.14676,-0.85064
-0.42715,-0.64035,-0.27427,0.37626,-0.64119,0.66127,0.84299,0.6306,-0.085442,0.50858,0.64051,-0.31789,-0.80755,0.71684,-0.68464,-0.37197,-0.39736,-0.28324,-0.42191,0.64604,-0.53981,-0.15939,-0.74835,-0.93474,0.39986,0.2041,-0.76419,-0.20385,-0.053009,-0.61357
-0.80246,-0.67114,0.89722,-0.11678,0.67828,0.41186,-0.022467,0.20065,-0.16314,0.9704,0.51572,-0.35274,0.64827,-0.015939,0.30556,0.8599,0.50655,-0.37451,-0.51032,0.89954,-0.11887,0.80274,0.24493,-0.023754,-0.085411,-0.18081,0.65493,0.82793,0.37319,-0.22453
-0.4789,-0.039329,0.80162,0.55393,0.29618,-0.20213,-0.76307,-0.77438,-0.91924,0.65213,-0.00046786,0.16086,-0.2373,0.6137,-0.76997,-0.42502,-0.70462,-0.75463,0.68216,0.45184,0.53334,0.87398,-0.52988,-0.99768,-0.24169,-0.56903,0.66114,0.62041,-0.28363,0.24891
0.27786,-0.74645,-0.45814,0.36976,0.14678,0.96443,-0.75492,-0.17656,0.7292,-0.64019,-0.56796,0.48523,0.68432,0.87953,0.60466,0.39454,-0.46934,0.62013,0.60413,-0.33853,-0.65289,0.28957,-0.6685,0.28462,0.73528,0.49057,0.0038191,-0.12551,0.17747,0.92783
0.67648,-0.36596,0.098287,-0.71721,0.16584,-0.91883,0.033515,0.79099,-0.41263,0.52852,0.3869,-0.38991,-0.58069,0.32355,-0.88036,-0.84921,-0.97107,-0.82793,-0.86433,-0.51211,0.24069,-0.576,-0.91179,0.14758,0.55039,-0.85245,0.92416,-0.39779,0.076605,-0.22116
-0.56397,0.48378,0.70588,-0.99624,0.87633,0.07453,-0.49812,0.93061,-0.1389,0.68542,-0.24481,-0.46614,-0.36596,0.39959,0.90084,-0.41801,-0.17052,0.075475,0.015371,0.7701,0.59017,0.19398,0.19147,-0.32887,0.82644,-0.47804,0.33054,0.66952,0.32472,0.5109
0.47348,-0.84245,0.29455,0.007237,-0.047393,-0.44218,0.82065,-0.7578,0.12786,-0.25691,-0.1553,0.94684,-0.080291,0.38145,-0.7307,-0.98087,-0.22246,-0.88418,-0.39504,-0.63736,-0.013138,-0.083722,0.22145,-0.95154,-0.77352,-0.30833,0.36174,-0.48822,0.48015,-0.77469
-0.08441,-0.34978,0.034957,0.12461,0.37785,-0.13704,-0.0057897,-0.97497,-0.46969,-0.79797,-0.10753,0.76772,-0.0013034,0.34125,-0.12472,-0.74415,-0.93493,-0.64487,-0.75065,0.0053877,-0.96477,0.0094594,0.10063,-0.68896,-0.081774,-0.89212,-0.80348,-0.92714,-0.75205,-0.89866
0.51681,0.5111,-0.43817,-0.5764,-0.52507,0.51789,-0.49356,0.39079,0.97109,-0.85606,0.88274,-0.042391,-0.61794,-0.89605,-0.19296,0.50257,0.8699,0.23687,-0.6731,0.49417,-0.085357,0.56598,0.4953,0.12917,0.061213,0.50596,0.48178,0.75171,-0.51647,-0.70669
0.88526,0.26496,-0.29567,-0.4965,0.55722,-0.32854,-0.66886,-0.74826,-0.46129,0.012739,0.65881,0.074295,-0.45353,0.73739,-0.82728,-0.2228,0.41706,0.84365,-0.85842,-0.92214,-0.14679,0.20045,-0.83361,0.73503,0.5403,0.61008,-0.25604,0.4719,0.46848,0.20468
0.78864,-0.46478,0.77855,-0.31745,0.20264,0.86754,-0.43153,0.39215,-0.593,0.43394,0.51757,-0.96816,-0.33981,0.34898,0.033943,-0.93811,0.89133,-0.32627,-0.50325,0.10467,-0.8979,0.65952,0.48351,-0.6963,0.048259,0.16633,0.6342,-0.84172,0.49736,0.2745
-0.60692,-0.59333,-0.44283,0.74309,-0.86639,-0.04283,0.071853,0.17317,0.27952,0.89156,-0.83982,-0.88651,0.54294,0.97503,-0.19408,0.67379,-0.78216,-0.14169,-0.162,0.80021,0.013673,0.6061,0.30859,-0.75457,-0.14594,-0.11448,-0.97893,-0.55596,0.83856,-0.18789
-0.12536,0.35211,-0.29397,-0.22751,-0.20737,-0.72032,-0.15437,0.91129,-0.26762,-0.56139,0.15525,-0.17435,0.24441,-0.10876,0.96389,-0.2985,-0.86557,-0.42514,0.5464,-0.78427,-0.038406,0.83592,0.38588,-0.61019,-0.093739,-0.71376,-0.45753,0.858,0.99204,0.41096
0.05136,0.038737,0.21562,-0.20795,0.29173,-0.79899,-0.36717,-0.47347,0.55982,-0.88103,0.55643,0.48206,0.24729,0.67036,-0.63127,-0.23744,-0.54438,-0.41126,0.046021,0.92942,-0.035519,-0.13527,-0.2312,-0.49055,0.81139,-0.05557,0.88809,-0.85618,-0.021188,0.61745
0.25568,0.98609,-0.056537,0.85882,-0.97921,0.76099,-0.43404,-0.80096,0.22421,0.5942,-0.68492,0.83081,0.056856,-0.8056,0.24593,-0.7468,0.15793,0.14453,-0.69142,0.46815,-0.92688,-0.39094,0.35286,0.43968,0.8722,0.89694,-0.57954,0.48978,-0.25553,-0.20971
-0.2492,-0.48824,0.17788,-0.18609,-0.49223,0.29036,0.73813,-0.64864,-0.78124,-0.076097,0.99951,-0.8156,0.56521,0.69983,-0.64495,-0.5166,0.72311,0.47628,-0.16649,-0.94666,-0.2213,-0.1092,-0.97785,0.93585,-0.32389,-0.32751,-0.055934,0.098793,-0.19045,0.40445
0.69541,-0.98228,-0.41621,-0.50279,-0.69566,0.016307,0.85478,-0.36544,-0.31123,-0.42474,-0.8483,-0.94404,0.94306,-0.89773,-0.85644,-0.16724,-0.16233,-0.61627,0.72518,0.6231,0.7173,0.058581,0.93007,-0.35558,-0.05487,0.10521,-0.86752,0.81515,-0.47252,0.1383
-0.99805,0.40575,-0.48785,0.90423,-0.72748,0.065935,0.95908,-0.45053,-0.32287,0.94095,0.58157,0.36021,-0.61606,0.67202,0.4402,-0.98566,0.019861,-0.74483,-0.43213,0.92736,-0.72235,0.94606,-0.85572,0.57028,-0.74971,-0.51134,0.52871,-0.55051,0.18406,-0.87634
-0.54774,-0.39629,0.10474,0.015165,-0.40733,0.062642,-0.7034,-0.27145,0.5133,0.21325,0.26847,0.7513,0.15454,0.37516,0.53901,-0.12719,0.84798,0.36528,0.069065,-0.80605,-0.96032,-0.50161,0.43202,-0.58207,0.4198,0.52608,-0.020122,0.036472,-0.74248,-0.96638
-0.23854,0.91522,-0.80887,-0.86758,0.50893,-0.59016,0.4467,-0.95263,-0.91983,0.50277,-0.021953,-0.42948,0.23114,0.047876,-0.82024,-0.5339,0.0046615,0.47841,0.72787,-0.3108,-0.82524,-0.2801,-0.11248,-0.43788,-0.98538,-0.33696,0.074952,-0.15089,-0.63632,0.26743
0.71826,0.43026,0.058616,0.34954,0.28006,0.12704,0.94,-0.17909,-0.17514,-0.97547,0.97923,0.56652,0.8233,0.072169,0.58846,-0.073169,-0.72349,0.054219,0.67459,0.946,0.83168,-0.97231,-0.57654,-0.48578,-0.98372,0.93009,0.16311,0.47835,0.84864,0.80518
-0.96001,0.48913,-0.72421,0.97265,-0.109,-0.39669,0.26976,0.75038,0.966,-0.20042,-0.45831,0.85777,-0.98175,-0.50271,0.033002,0.40495,-0.41608,-0.85655,-0.69004,0.88735,0.11305,-0.82247,0.51264,-0.29032,-0.729,0.059764,-0.44928,0.95455,0.036344,0.79178
0.66735,0.78274,-0.64477,-0.25276,0.50244,0.47926,-0.30501,0.054479,-0.60441,0.05631,-0.32224,-0.44784,0.67205,-0.40724,-0.067318,-0.45517,0.23802,-0.68313,-0.80102,0.39452,-0.63976,0.90592,0.24627,-0.6009,0.82554,0.035364,-0.30869,0.92941,0.81131,-0.21644
0.93526,0.88308,-0.42997,0.44188,-0.79139,-0.09566,0.21863,-0.51408,0.22299,-0.75011,-0.0043137,0.85349,0.26222,-0.6892,-0.55247,0.47069,-0.81604,0.70374,-0.5614,-0.99824,0.83062,-0.59606,0.46395,-0.52601,0.27049,0.32143,-0.20808,-0.13473,-0.11719,-0.54026
0.76169,0.52747,-0.30398,-0.58849,0.18616,0.80287,-0.038814,-0.66796,0.30522,-0.31281,0.67231,0.32448,-0.42228,-0.82089,-0.72884,0.98525,0.31323,0.33683,-0.1326,-0.048851,-0.77698,0.20562,-0.41485,-0.18376,0.21828,-0.4959,-0.81866,-0.43791,0.72504,-0.29915
0.84779,0.055448,0.050798,0.066585,-0.52495,0.58492,0.48225,-0.47275,-0.42333,0.60043,-0.7474,-0.69598,-0.64378,0.8831,0.82949,0.90321,0.15777,-0.276,0.12833,-0.50264,0.91983,0.6461,0.19743,0.77034,0.74073,-0.21089,-0.39703,-0.80725,0.49898,-0.55253
-0.031852,0.3036,0.69563,0.72478,0.77359,-0.43444,0.28677,0.81593,0.47028,0.46277,-0.76079,0.22564,0.058351,-0.12343,0.37699,-0.57884,-0.36255,-0.37935,0.30797,-0.43879,-0.97965,0.82909,-0.14682,-0.027854,-0.64006,-0.71488,-0.13486,-0.75136,0.48328,-0.67465
0.74215,0.24184,-0.52787,-0.89967,0.25779,0.81427,0.85791,-0.89193,0.99926,-0.46759,-0.082166,0.39289,-0.26049,0.51274,0.64921,0.98192,-0.011392,0.81582,-0.03295,-0.093457,-0.067498,0.77274,-0.99377,-0.091353,-0.87154,-0.62906,-0.3435,-0.22308,-0.59225,-0.94782
-0.4988,0.56432,0.27046,-0.10683,-0.75282,0.44712,0.34696,-0.40673,-0.50053,0.62336,0.10048,-0.23401,0.65418,0.62664,0.29748,0.89111,0.41648,-0.72357,-0.047603,-0.78502,-0.10271,-0.03347,0.070275,0.84349,0.16261,-0.71801,0.54042,-0.98217,-0.99199,-0.70178
0.43777,0.22372,-0.40248,-0.79867,-0.40118,-0.12513,0.69398,-0.83986,-0.1815,-0.87551,0.50675,0.48266,0.45647,-0.85158,0.29523,0.68701,0.97105,0.39079,-0.18063,0.68026,-0.47278,-0.68735,0.45551,-0.93829,0.60942,-0.30916,-0.32633,0.84028,0.48006,0.14178
-0.73289,0.98064,0.097392,-0.75525,-0.80612,-0.70649,-0.0023573,0.47596,0.75193,-0.78052,-0.12339,-0.013587,0.63202,-0.33765,-0.18576,0.010845,0.35293,0.88427,-0.67848,0.47215,-0.59946,-0.57166,-0.62454,-0.099039,-0.95434,0.19576,0.76866,-0.54609,-0.6227,0.28459
0.24784,-0.77128,0.46181,-0.25111,-0.73096,-0.72304,-0.40568,0.15936,-0.39751,-0.73231,0.17908,-0.41768,0.33439,0.73966,0.383,-0.41064,0.38109,-0.32696,-0.48259,-0.85146,0.51364,-0.71942,-0.52435,0.35136,0.16815,0.053633,0.23343,-0.23001,-0.088227,0.48409
-0.37446,0.46222,0.80343,0.85752,0.38887,0.40272,-0.11797,0.086124,0.2444,-0.01163,0.83147,-0.54621,0.50182,-0.078317,-0.69625,0.93911,0.68167,0.62231,0.49145,0.11752,0.43868,-0.92031,-0.50008,0.75384,-0.487,-0.16683,-0.05278,-0.82151,0.034442,-0.36823
-0.79372,0.70092,0.89278,0.32105,0.52904,0.57869,0.21346,-0.54501,-0.14527,-0.15739,0.057028,0.74176,0.5444,0.16941,0.28419,-0.74143,0.22541,-0.51286,-0.21489,0.9577,-0.53387,0.73471,0.80167,0.80718,-0.14759,-0.87186,0.29736,0.4754,0.86341,0.90873
0.74988,-0.97748,-0.19629,-0.22184,0.10371,-0.36421,0.18404,0.39843,0.95276,-0.46321,-0.012188,0.2384,-0.023012,0.26069,0.56962,-0.26642,-0.52989,-0.6369,0.23743,-0.54479,-0.11565,-0.74459,-0.66999,0.93471,0.83842,-0.42841,-0.97004,-0.80081,-0.45782,-0.50024
-0.77388,-0.23805,-0.75893,0.70295,0.47394,-0.084886,0.98841,-0.34243,0.16499,-0.34324,-0.57289,-0.087772,-0.26349,0.28288,0.50674,-0.93991,0.89736,0.98477,-0.5571,0.94771,-0.18429,-0.71783,0.45192,-0.65511,0.70002,-0.4004,-0.279,-0.91715,0.67276,0.59446
0.99425,0.89075,-0.38154,0.67288,-0.048331,-0.46303,0.17743,0.52422,-0.11603,-0.32286,0.50437,0.93994,0.55116,0.11628,-0.24526,-0.27195,0.99219,0.98635,-0.92136,-0.017049,0.62559,-0.40435,0.3501,-0.4699,0.50347,-0.5546,0.14767,0.75832,-0.54216,0.72017
0.89169,-0.74828,-0.068626,-0.53448,0.67617,-0.6335,0.29104,-0.99087,0.02396,-0.78035,0.40499,-0.78931,0.33535,-0.60307,-0.63054,0.028605,-0.18258,0.43138,-0.42283,0.88526,0.70917,0.4458,0.77537,-0.49321,0.14219,0.41897,-0.54328,0.0095425,-0.89817,0.49855
-0.067783,0.72321,-0.02158,-0.28806,-0.2061,-0.49248,0.1154,-0.9428,-0.65886,0.086082,-0.84486,-0.2555,-0.35394,-0.30942,-0.18496,0.76723,-0.63548,0.63569,-0.82081,-0.24197,-0.12697,0.76644,-0.81004,-0.11271,-0.0019239,0.77792,0.27576,0.20851,-0.84644,-0.56331
0.68538,-0.64833,-0.71688,0.59214,0.72977,-0.050018,0.76901,-0.12562,-0.99694,0.26973,-0.097112,-0.60836,-0.39563,0.35952,-0.20801,0.76277,0.38441,-0.33364,-0.46107,0.63336,0.58723,-0.52259,0.66532,-0.91099,0.52114,0.97813,-0.35077,-0.49395,0.53221,-0.15962
-0.20473,0.97616,0.87134,-0.5721,0.0088804,0.90111,-0.23329,-0.34549,-0.24937,-0.44173,-0.71396,-0.48837,0.68312,-0.49704,-0.5558,0.85697,-0.7389,-0.7353,-0.73035,-0.84207,0.14121,-0.73194,0.85602,-0.41181,-0.74775,0.05024,-0.60309,0.65508,0.56093,-0.39339
-0.92381,-0.18879,-0.4064,0.58834,-0.38148,-0.96428,0.76154,-0.18417,0.086224,0.39564,-0.6506,-0.40671,0.55387,0.49012,0.87336,-0.18444,-0.46921,-0.23045,0.94232,-0.53907,0.57071,0.9285,0.073751,-0.27633,-0.44635,-0.94849,0.34372,0.45318,0.67652,0.6857
-0.89209,0.25092,-0.86077,-0.35159,0.91445,0.14679,0.064085,0.64709,-0.89619,-0.25911,0.51967,-0.93874,-0.33284,-0.48619,0.79641,-0.33366,-0.98876,0.5115,-0.65259,-0.65151,0.46346,-0.10531,0.19012,-0.35809,-0.35651,0.42376,0.30763,-0.91005,0.11625,0.93547
-0.7331,-0.9223,0.83783,0.95151,-0.0098779,-0.27086,-0.20798,-0.36558,-0.89627,0.37742,0.64158,0.21352,-0.46495,-0.11563,0.45687,-0.20638,-0.030034,0.48492,0.80214,0.98066,0.52459,0.64772,-0.75438,0.12861,-0.75103,-0.26892,-0.61204,0.040797,0.076101,0.69855
-0.38102,-0.90528,0.14148,0.40907,-0.62013,-0.39034,0.32508,0.039897,0.74766,0.29553,0.29214,-0.67094,0.98577,0.17158,0.4734,-0.46799,0.90339,-0.49012,-0.16442,0.83705,0.87288,-0.21071,0.53351,-0.54701,-0.90907,-0.49369,0.28081,0.5055,0.15658,-0.50823
-0.99369,-0.56711,-0.45054,-0.21987,-0.53109,-0.44594,0.76838,0.18392,0.27593,-0.36927,0.015761,0.64959,0.16729,0.69773,-0.13901,0.4027,-0.4026,0.46768,0.37326,-0.2083,0.18521,0.24258,0.56288,-0.55752,0.33377,0.60025,0.42849,-0.95182,-0.75464,-0.38133
-0.88865,0.54358,0.84942,-0.10669,0.19861,0.18335,-0.82147,0.98964,-0.055262,-0.64609,0.32281,-0.5803,0.98864,0.92283,-0.45343,0.95932,0.22536,-0.99507,0.97632,0.28214,0.66131,0.51789,-0.19751,-0.88795,0.92784,-0.80788,0.59841,0.64815,-0.77045,-0.55339
0.057685,-0.81258,-0.70935,0.10998,0.91482,-0.59684,0.88637,0.87374,0.48158,-0.86897,0.9568,-0.9462,0.45353,-0.86595,0.72055,-0.080381,0.38342,0.59185,0.75726,-0.23416,-0.95881,0.21127,-0.87303,0.34944,0.080281,0.62108,-0.78744,0.058094,0.52336,-0.44392
0.91034,0.71421,-0.21401,-0.51045,0.26103,-0.20914,-0.27977,-0.67393,-0.87268,-0.93892,-0.78364,-0.27944,-0.82621,-0.68055,0.92989,0.74942,0.0045778,0.35618,-0.45919,-0.5333,-0.98644,0.015889,0.23705,0.024247,-0.55163,0.19567,0.79627,0.31907,-0.50841,-0.26191
0.5478,0.90899,0.20963,-0.37467,-0.37116,0.85933,0.58125,-0.67801,-0.35528,-0.69069,0.30964,0.68591,-0.14918,0.60256,0.39169,-0.48611,-0.19433,-0.70206,-0.63347,0.28742,0.51377,-0.59367,0.28809,-0.81497,0.1506,0.72223,0.6892,-0.035207,-0.70538,-0.43829
-0.62402,0.19731,-0.6655,0.2509,-0.66642,0.16632,0.43889,-0.015824,-0.33253,0.15591,-0.29896,-0.19099,-0.37792,0.17611,-0.77296,0.93829,0.75945,-0.13139,-0.83488,0.5064,-0.64889,0.773,0.87488,-0.36781,0.85842,0.64824,0.75336,-0.31138,-0.30558,0.063501
0.054918,0.82111,-0.80206,0.46982,0.57179,-0.56563,-0.25164,0.54436,-0.5516,0.99245,0.76721,0.8106,0.63672,0.3797,-0.70501,0.23146,0.76973,-0.58163,0.74752,-0.58869,0.32482,-0.5448,-0.86161,-0.61443,0.25319,-0.59404,-0.29255,-0.68076,-0.48634,-0.56753
-0.85497,-0.50263,0.48291,0.95494,-0.044034,-0.15468,-0.86186,0.59882,0.11252,-0.89782,-0.28197,0.7347,0.92399,0.88901,-0.5638,0.83974,-0.73293,-0.62476,0.43446,0.84101,-0.0086073,-0.79767,-0.92778,0.6154,-0.72295,0.32842,0.97713,-0.18194,0.32636,0.4468
-0.94736,-0.86549,0.8748,0.56058,0.19859,-0.31642,0.25634,0.14135,-0.81217,0.9298,0.39892,0.35819,-0.23779,-0.4393,0.389,0.41397,-0.58781,0.92259,-0.46515,-0.32511,0.58308,-0.52269,0.55399,0.81132,-0.42734,-0.40028,-0.68567,0.39326,-0.059447,-0.14629
-0.73037,0.50333,0.98235,-0.37972,0.078341,0.077455,0.351,-0.11438,-0.82523,-0.2901,0.72767,0.73737,0.98286,-0.27312,0.83682,-0.49831,0.23279,0.57167,0.34637,-0.49746,0.9144,0.3873,-0.55198,0.18307,-0.69694,-0.67262,0.12587,-0.72951,0.61759,0.60317
-0.078555,0.48827,0.21265,-0.79278,-0.67437,0.074829,0.14959,0.22323,-0.85461,0.80937,-0.36082,0.16923,-0.42863,0.57105,0.15274,-0.14146,-0.14595,-0.39792,0.39286,-0.04366,-0.0053709,-0.95794,0.023346,-0.38538,0.75971,-0.3155,0.96124,0.9298,0.10778,0.77069
-0.16359,0.89451,-0.45979,0.33939,-0.34497,0.76225,0.24021,0.91153,0.9176,-0.70508,0.13627,0.16309,-0.12958,-0.76474,-0.3861,-0.59466,0.68039,0.0051741,0.18596,0.49165,-0.14475,0.63127,-0.51013,0.25156,0.59342,-0.17661,-0.64723,0.15548,0.5978,0.31807
0.99613,0.87252,0.64143,-0.55743,0.05783,-0.25029,-0.33912,-0.22705,-0.93592,-0.9497,0.7687,0.59623,-0.08944,-0.90702,-0.95719,-0.59006,-0.96692,-0.25269,-0.68294,0.083566,-0.093682,-0.59561,0.8468,0.090147,0.56101,0.49879,-0.92904,-0.69569,-0.73326,-0.12432
0.79874,-0.31692,0.17042,-0.043479,-0.81879,0.30718,0.30663,-0.14867,-0.46196,0.15848,-0.63804,0.093324,-0.15601,0.022091,-0.57313,0.30818,0.54903,0.063019,-0.19608,0.31278,-0.78779,0.54137,-0.26596,0.93983,-0.61105,-0.43805,0.77189,-0.51396,-0.22907,-0.59444
0.16595,-0.03906,-0.093278,-0.31164,-0.96616,0.14949,-0.88035,0.47716,0.20233,0.1985,-0.1695,-0.86862,0.69079,-0.62236,-0.41418,-0.20724,-0.2408,0.53367,0.61164,0.18075,0.84249,-0.51455,0.30053,-0.88481,-0.032256,0.67687,-0.22107,0.71932,-0.15346,-0.28008
-0.73913,0.0059393,0.58914,0.71204,-0.14685,-0.032017,0.075624,0.29138,-0.025173,0.081768,-0.43365,-0.3864,-0.19825,0.49314,-0.36395,0.38065,-0.97536,0.72727,0.35451,-0.36174,0.85628,0.77064,0.073787,-0.0012561,0.39284,-0.55152,0.24192,0.60413,-0.17032,-0.72802
-0.20814,0.27387,-0.26355,-0.34826,-0.18318,-0.89159,-0.96529,-0.23574,0.28226,0.21362,-0.9947,0.89654,0.083489,-0.13203,0.47341,-0.71413,0.20627,0.76303,0.45867,-0.47896,0.21283,-0.28103,-0.65811,-0.22489,0.26252,-0.51193,0.13725,-0.75094,-0.39738,0.31776
-0.72682,-0.31155,0.50749,0.58787,-0.049137,0.71883,-0.2209,0.43954,-0.0046711,-0.18296,0.51546,0.84747,-0.28411,-0.18104,-0.26218,0.53185,-0.33806,0.92437,-0.42444,-0.81861,-0.33148,-0.87717,-0.9527,-0.13072,0.19013,0.66702,0.69879,-0.43043,0.24993,-0.26179
-0.77718,0.3613,0.29078,0.18984,0.20532,0.87705,-0.12701,-0.80459,-0.44977,-0.51898,-0.93469,-0.45318,-0.28023,-0.59299,0.49545,-0.76219,0.50539,-0.96843,0.18955,0.95203,-0.22641,0.51944,0.24999,0.63156,0.4439,-0.46516,0.9931,-0.32128,0.097432,-0.75935
-0.32852,-0.94888,0.17055,0.96998,0.75561,0.92069,-0.58791,-0.27608,-0.70411,-0.16201,0.60238,-0.052307,0.85517,-0.68701,0.094919,0.98121,0.22559,0.37461,0.66506,-0.85991,0.94462,0.3026,-0.72697,0.027388,-0.29019,-0.33897,0.96329,-0.63533,0.034957,0.38901
-0.89463,-0.024409,0.17159,0.38375,0.79204,-0.60673,0.369,-0.57156,-0.12918,-0.2857,-0.60804,0.24063,0.70955,0.91488,0.37549,-0.23879,-0.98146,0.14135,0.99747,-0.33574,0.46479,-0.18202,-0.77265,-0.31915,-0.87088,0.66977,-0.34471,0.61416,-0.86241,-0.53637
0.88099,0.089821,-0.93438,-0.15226,0.6014,0.18817,0.85005,0.81284,0.72918,-0.98484,-0.73455,-0.2379,0.21147,0.66477,-0.38101,-0.071306,0.99375,0.0095635,-0.61422,-0.29409,-0.83315,0.43878,-0.90776,0.6257,-0.088962,0.33707,-0.47805,-0.75577,0.12368,-0.73262
-0.89594,0.87288,-0.27626,-0.50212,-0.7096,-0.36199,0.64284,0.41436,0.87904,-0.96909,-0.85251,-0.98096,-0.19507,-0.12639,-0.065815,0.72718,0.78885,-0.29439,-0.47885,-0.17516,-0.49389,-0.17052,0.14421,-0.35677,-0.54668,0.34756,0.51986,-0.266,0.28271,-0.25866
0.084678,-0.79265,0.79413,-0.55666,-0.49816,-0.75437,-0.2561,0.8929,0.26539,-0.32698,-0.63299,-0.48297,-0.063446,0.56863,0.77523,0.14422,-0.91848,0.47118,-0.23475,-0.52515,-0.4965,0.83036,0.098933,-0.35286,0.71565,0.56068,-0.72289,0.32735,-0.89134,-0.02394
0.58433,-0.081286,0.97682,0.75544,0.30689,0.48475,-0.97647,0.88274,-0.92864,0.57147,0.91458,-0.55137,-0.47336,0.29158,0.85139,-0.32963,0.47368,-0.47221,-0.22482,-0.74077,0.61508,-0.22871,-0.98613,0.81065,-0.95006,0.83933,0.23134,0.40956,-0.3335,-0.67082
-0.20851,0.34534,0.17204,0.67778,0.60732,-0.36711,-0.2131,-0.63022,0.41584,0.799,0.0058971,0.63106,0.26696,-0.84969,-0.14613,-0.75658,-0.4791,0.1368,-0.0044995,-0.88299,-0.92804,0.086201,0.21714,-0.46919,0.30327,-0.64911,0.25702,-0.7645,0.53788,-0.20074
-0.24643,-0.12819,-0.53229,-0.91877,0.39889,0.27122,0.33803,0.52903,-0.0020722,-0.37975,0.97969,0.9284,0.072073,0.81906,-0.61431,-0.43098,0.77835,0.80923,-0.83968,-0.62594,0.72819,-0.85359,0.9414,-0.081962,-0.25172,-0.96964,-0.71685,0.52817,-0.19509,-0.57796
-0.11107,0.44082,0.1409,0.46501,0.38057,0.0856,-0.21099,-0.71762,0.96534,0.28802,0.37149,-0.73411,-0.83094,0.55223,0.89361,0.6494,0.84825,-0.26386,-0.78436,-0.66657,-0.71292,0.59587,0.20364,-0.77943,-0.31363,0.75186,-0.1671,0.64483,-0.064794,0.19765
0.79293,0.27558,-0.83593,-0.66132,0.55177,0.97436,0.11364,-0.17093,0.33183,0.85763,-0.78639,0.97899,-0.54112,0.35855,0.90996,0.32144,-0.73835,-0.66464,0.37335,0.94339,0.093749,0.64346,-0.034197,-0.40295,-0.30166,0.043941,-0.30839,0.2135,0.18666,-0.59713
-0.40018,0.19769,0.088929,0.16587,0.79837,0.7381,-0.88842,0.8828,0.91205,-0.98482,-0.39144,-0.15712,0.46881,0.020726,0.80752,-0.26813,-0.73077,0.85823,-0.52722,-0.69255,0.6579,-0.15809,0.7485,-0.35371,-0.86582,0.64872,0.76589,0.938,-0.086296,0.24119
-0.0043856,0.27143,-0.95617,0.19798,-0.68756,0.78723,-0.55201,-0.22736,-0.45036,0.94642,-0.81325,0.75616,0.94224,-0.27853,0.91864,0.36067,0.22279,-0.59118,-0.5797,-0.66196,-0.87947,0.36358,-0.51762,-0.65315,-0.7376,-0.94465,-0.43664,0.44537,-0.39803,-0.94799
0.08885,-0.73926,0.43287,0.95468,-0.84949,-0.09157,-0.25534,0.56946,0.61422,-0.51376,-0.53774,-0.93315,-0.75133,-0.88776,-0.64528,0.5359,-0.74897,-0.97016,0.23921,0.062657,0.79036,0.43349,-0.23177,0.70198,0.027162,-0.59599,-0.93903,-0.78748,0.49184,0.99465
0.34221,0.55479,-0.97949,0.39024,-0.79003,-0.12481,0.85477,-0.5349,0.51153,-0.48557,-0.94923,0.6063,-0.73278,0.7712,-0.74782,-0.34283,0.70141,0.47904,-0.3631,0.38244,-0.68705,-0.8175,0.71274,0.57831,0.44158,0.092799,-0.69153,-0.55973,-0.74919,0.17424
-0.40091,0.91563,0.77475,-0.55685,-0.39623,0.52354,0.035317,-0.10761,0.20881,0.51675,-0.52884,0.4337,0.31438,-0.043718,0.46067,-0.06251,-0.036628,-0.4505,-0.56095,-0.47938,0.43682,-0.45401,0.66045,0.24521,-0.0084175,0.42085,0.98271,0.052178,0.43551,-0.63704
-0.54093,-0.33282,-0.1416,-0.89046,-0.15459,0.41294,0.62826,0.99611,0.77632,0.95221,0.88131,-0.60149,0.42861,-0.7406,0.74993,0.30381,-0.9428,-0.85809,-0.37581,0.91448,0.047862,-0.59018,-0.44759,-0.36831,-0.10035,-0.99612,0.54206,-0.5547,0.97003,0.48877
0.3452,-0.011651,-0.073902,0.28725,-0.48463,-0.068504,0.16139,-0.51285,0.54127,-0.9411,-0.52747,0.97176,-0.3013,0.14568,-0.51114,-0.33575,-0.24969,0.36958,0.60009,0.48979,0.62409,-0.79201,-0.52604,-0.43392,0.445,0.60025,-0.93149,-0.69368,-0.48147,-0.76923
-0.73234,0.64646,0.24079,0.61994,0.076608,0.2157,-0.65851,-0.48687,0.36897,-0.98114,-0.4901,0.26496,-0.50558,-0.73192,-0.15297,0.69953,0.76487,-0.5019,-0.23342,-0.049224,-0.29122,0.30495,-0.080812,-0.2568,-0.32275,-0.16348,-0.6995,0.15156,0.51335,-0.93945
0.68629,0.64443,-0.81452,-0.46163,-0.1554,0.61373,-0.61902,-0.783,0.12117,0.26018,-0.83789,0.8333,0.26189,0.21377,0.62417,0.40832,-0.45435,-0.0025398,0.28588,0.11672,0.94495,-0.82659,0.7982,0.63135,0.45146,-0.90699,0.33935,-0.73845,-0.82863,-0.24891
0.8814,0.29374,0.89624,0.46393,-0.37214,-0.86917,-0.17829,-0.57274,0.050035,-0.8722,-0.44903,-0.064662,0.83521,0.32718,0.30652,-0.25699,-0.90025,-0.46158,0.74256,0.13237,0.54701,0.48079,0.93258,-0.69216,-0.96553,-0.96001,0.15659,0.31821,0.66219,-0.5989
0.087858,0.052733,-0.43945,0.90682,-0.25252,-0.10885,-0.35083,0.27966,-0.27782,0.30845,0.9939,0.38934,-0.56379,-0.023289,0.63118,0.58623,-0.1248,-0.63513,-0.17789,-0.60061,-0.34364,-0.16411,-0.43831,0.30814,-0.93788,-0.41465,-0.65405,-0.42081,0.62981,-0.12003
-0.93352,-0.13724,-0.53528,0.1676,-0.30431,0.92078,0.74555,-0.43961,-0.83578,0.43243,0.75717,0.014238,0.26889,-0.28688,-0.00081166,-0.55094,0.77046,-0.018864,-0.38069,0.53442,0.56609,0.31836,0.17722,-0.035547,0.066699,0.83985,0.14501,-0.23638,-0.72184,0.81879
-0.28215,-0.050231,-0.46841,-0.51469,0.64513,-0.38485,0.84939,0.67222,-0.11622,-0.33535,0.084319,0.36028,-0.9087,-0.95296,0.46058,0.61558,-0.66899,0.23456,-0.22943,0.92793,-0.91749,-0.038324,-0.65219,0.73889,-0.89559,0.41192,-0.013609,-0.42186,0.69554,-0.031598
-0.0078671,-0.93403,0.14455,0.46533,0.90263,-0.16917,0.57403,-0.72951,0.65818,-0.29154,0.19723,-0.61568,0.63085,-0.010985,0.32601,-0.43441,-0.88964,0.20102,0.65334,0.70628,0.85188,-0.30219,0.20773,-0.91151,-0.59547,0.24848,-0.74884,0.36208,0.60362,0.45781
-0.69904,0.94258,0.79547,0.23482,-0.38773,-0.71822,-0.38079,0.42927,-0.60762,-0.95325,0.59457,-0.34582,-0.13377,-0.25942,-0.4925,0.6969,-0.036722,-0.35494,0.93046,0.40554,-0.65736,0.45219,0.58505,-0.16668,-0.35994,-0.065446,-0.57336,0.11458,-0.47874,-0.22091
-0.75879,-0.19046,0.10916,0.69837,-0.72566,-0.9637,-0.27957,-0.54817,-0.94251,0.32171,-0.40777,0.65706,-0.9213,0.070574,-0.83578,-0.74546,0.90665,-0.18636,0.019746,0.97237,0.9839,-0.025183,-0.20293,-0.56362,0.5813,-0.32654,-0.10512,0.74132,-0.45422,0.47547
0.92765,0.026202,0.52555,-0.87727,-0.88481,-0.68889,0.62382,-0.28225,-0.67037,0.73192,-0.47498,-0.3708,0.064636,0.8116,0.2656,-0.7591,0.12261,0.2717,-0.23172,-0.62307,0.34729,-0.37706,-0.97104,0.93537,0.54371,-0.99328,-0.70642,0.37159,-0.51542,0.44397
-0.97815,0.13005,-0.70482,0.33125,0.5786,0.56885,0.23091,-0.60038,0.20778,0.31022,0.81253,-0.084201,-0.43997,0.56763,-0.13494,-0.34999,0.22503,0.21657,0.16044,-0.38465,0.96934,-0.22288,-0.087417,-0.97429,0.18296,-0.55558,0.55206,-0.098366,-0.58692,0.44886
-0.81463,-0.86437,-0.11576,-0.36753,-0.57748,-0.54786,0.55486,-0.76346,-0.6314,-0.90853,-0.83588,-0.54797,0.073738,0.63471,-0.57714,-0.68148,0.42132,0.45148,0.003747,0.37004,0.5759,0.90756,0.82027,-0.6882,0.2966,-0.00465,0.65938,0.67062,-0.47621,0.7737
-0.93346,0.22641,-0.41807,0.66891,-0.24636,-0.77353,-0.62782,-0.075795,0.16686,0.66181,-0.16302,-0.38269,-0.63099,0.94412,0.82371,0.89624,0.75257,0.28117,0.87211,-0.27931,0.40313,-0.30965,-0.32123,-0.92519,0.58609,0.14862,-0.27951,-0.026159,0.33012,0.99584
-0.06723,0.76524,0.78463,0.91188,-0.99068,-0.19793,-0.70641,0.58226,-0.32534,0.013053,0.72442,-0.16978,0.9371,-0.047355,0.32034,0.85732,-0.15037,-0.57401,0.5278,-0.60686,0.76726,-0.082355,0.14992,0.54601,-0.39183,-0.23547,0.15016,0.78973,-0.68857,0.92607
0.74944,0.049949,-0.53556,0.60132,-0.10775,0.49653,-0.11419,0.36435,-0.41008,0.93391,0.19943,-0.50893,-0.31834,0.72419,-0.41097,0.29915,-0.9465,0.32149,0.91608,0.89384,0.3256,0.3258,0.061942,-0.2553,0.99308,0.66384,0.85246,0.48449,0.23026,0.94648
0.23393,-0.76987,-0.82207,-0.83377,0.15234,-0.41833,-0.95155,0.35141,-0.60386,0.68195,0.94766,-0.93472,0.53415,0.79127,-0.54924,0.83113,0.1599,0.1236,0.96917,-0.27874,0.4825,-0.037521,0.56992,-0.0018358,-0.81832,0.087215,0.94892,-0.16426,-0.5044,-0.41313
