-0.58299,0.91749,0.50988,-0.43036,0.41164,0.82241,-0.014892,0.42059,-0.094303,-0.35744,-0.27653,-0.94992,-0.094239,0.44715,-0.98098,-0.60647,0.41418,0.31695,-0.83457,-0.73024,0.63575,0.36228,0.79178,-0.46148,0.94749,0.46799,-0.25365,0.55523,-0.67854,0.31702,0.56812,-0.61506,0.31955,-0.23818,-0.49664,0.017331,0.2953,-0.29998,0.5903,-0.94384,-0.4521,-0.34244,-0.43874,0.31447,0.1277,0.83777,-0.14192,0.69181,-0.27128,-0.37632
-0.18395,0.55244,0.1038,-0.91073,0.75783,0.4354,-0.095348,-0.91037,0.86577,-0.66326,0.9666,0.68154,0.98,-0.25543,0.76517,-0.5347,0.17724,0.83928,-0.076548,0.27866,-0.25568,0.30005,-0.74261,0.72527,-0.57253,-0.36444,-0.80694,0.15121,-0.20781,-0.33073,0.47739,0.92823,-0.60109,0.15493,0.96749,-0.35869,0.90397,-0.062103,0.16221,0.91451,-0.8677,0.1661,-0.50638,0.89912,0.64324,0.61686,-0.71305,0.74817,0.2736,0.53305
0.12136,-0.79917,-0.43593,-0.49113,-0.69241,0.6201,0.21758,-0.7181,0.61505,0.5416,-0.29551,-0.099666,-0.74438,0.47439,0.34095,0.33636,0.022545,-0.85439,-0.46808,0.29015,0.3988,-0.98717,-0.03312,-0.011475,0.21149,-0.20819,-0.11045,0.70556,-0.70204,-0.92675,0.42368,0.94358,0.33042,-0.51182,0.75594,0.76224,-0.60188,-0.79122,-0.18476,0.51048,0.67676,-0.25189,0.56957,0.2348,0.84918,-0.11788,0.84582,-0.7072,-0.53422,-0.24056
-0.17469,-0.86505,0.17114,0.03368,-0.37994,0.9366,-0.22721,0.45926,0.8928,-0.94512,-0.86778,0.044911,-0.57927,-0.83159,0.63634,0.29248,0.88735,0.46535,0.82025,-0.69904,0.59712,0.76418,-0.62994,0.57638,-0.70582,-0.25389,0.82921,0.52064,0.45695,0.011759,0.99773,0.53549,0.57639,0.76769,-0.57838,0.84324,-0.27617,0.45151,-0.91763,0.23123,0.23458,0.92771,0.20322,-0.91546,-0.68568,-0.33301,-0.99288,-0.56858,0.077971,0.45933
-0.46197,-0.49458,0.76754,-0.067731,0.67268,-0.14563,-0.96351,-0.82406,0.57593,-0.59219,0.026202,0.45915,-0.17077,0.27885,-0.06029,0.99796,0.28946,0.43642,0.71526,0.62246,0.48574,-0.65674,0.3779,-0.42865,0.69435,-0.17006,-0.29712,-0.80527,0.97707,0.21852,0.40163,-0.10012,0.18713,0.30844,-0.74092,-0.21559,-0.26966,-0.79216,-0.1196,0.78421,0.057556,0.93247,-0.52042,-0.44971,-0.71977,-0.76195,0.60939,-0.013973,0.9022,0.041408
0.53092,-0.99611,-0.32607,0.62929,-0.4184,0.58755,-0.082649,0.62212,0.72646,-0.51975,0.66392,-0.82029,0.6493,-0.6846,0.73465,0.24256,-0.57181,0.14888,-0.69513,0.40076,-0.41961,0.91223,0.48146,0.84717,-0.35384,-0.95618,0.15622,-0.83607,-0.96615,0.33073,0.47662,0.78951,0.42393,0.61525,0.77449,-0.44645,-0.62226,0.62311,-0.38906,-0.83807,-0.51164,-0.15694,-0.16364,-0.87187,0.15234,-0.10803,0.01793,-0.27754,0.61938,-0.4425
-0.58709,0.20874,-0.44665,-0.19932,0.65907,0.6088,-0.63855,0.37654,0.95049,-0.12466,0.42621,-0.92346,0.86603,-0.35672,-0.31264,-0.18978,0.64962,-0.89364,0.82345,0.46481,-0.15194,-0.8611,0.36496,0.52721,0.19311,0.47005,-0.74923,-0.13805,0.80716,-0.82556,-0.79046,0.49986,0.70158,-0.2887,0.025806,-0.42793,-0.51203,0.26618,0.50092,0.79093,-0.46796,-0.23937,-0.69097,0.35618,0.46464,-0.51054,-0.80804,-0.64761,0.97107,-0.01151
0.22927,0.29757,-0.86231,-0.41174,0.77839,-0.98406,0.41899,-0.93178,-0.1615,-0.72075,-0.56194,-0.30975,-0.42217,-0.17477,0.11944,0.83809,-0.27354,0.4976,-0.89652,0.38633,0.51269,0.26465,-0.1123,0.061388,-0.1485,0.15172,-0.75088,0.61133,-0.31429,-0.65727,0.30555,-0.66798,-0.44706,-0.60259,0.31705,-0.67333,0.012004,-0.70187,-0.97175,0.70616,0.72894,0.25158,-0.66415,0.2928,0.088172,-0.75501,0.2968,-0.94288,0.62305,0.19988
0.88183,0.10533,0.36228,0.35171,-0.72328,-0.034779,-0.40052,-0.16452,-0.96556,-0.16347,0.9338,0.99565,-0.43716,-0.55358,0.36119,0.89986,0.56473,0.048907,0.32922,-0.48527,0.46133,0.15447,-0.1792,0.36333,-0.092925,0.77678,-0.034145,-0.55061,0.72192,0.98941,0.84178,0.68785,0.25772,-0.16354,0.16246,0.089942,0.46162,-0.61773,0.44522,0.18682,-0.49333,-0.60265,0.3518,0.8577,0.36677,0.52685,0.30104,-0.49603,0.3579,0.62612
-0.17897,-0.52192,-0.78648,-0.8583,0.40343,-0.96566,-0.95616,0.58232,-0.59436,-0.5988,0.64855,0.83298,-0.17916,-0.91946,0.56208,0.30718,-0.59435,-0.88681,0.097972,0.93723,0.12781,-0.99162,0.78767,-0.72782,0.77634,-0.34569,0.5643,0.28445,0.9196,0.14409,0.37754,-0.68058,0.038221,0.35431,0.77977,0.46208,-0.13211,-0.66894,-0.71326,0.47478,0.87452,0.62022,0.79621,-0.51768,-0.79314,0.043629,-0.30479,-0.12205,0.24342,-0.31534
-0.94662,-0.61247,0.68084,0.69492,-0.68831,0.47484,-0.75082,-0.36523,0.81464,0.57208,-0.44951,-0.86978,0.63997,0.85061,0.0098721,0.43609,-0.92553,0.35505,-0.058764,-0.48957,-0.46975,-0.082683,0.10472,0.69512,-0.97444,0.26886,-0.023816,-0.3868,0.11993,0.96558,-0.66403,-0.82445,0.81345,-0.69573,0.68786,0.47305,-0.20688,0.69938,0.59363,-0.26101,0.74384,0.4875,0.14736,-0.29059,0.046705,-0.53224,0.03943,0.40881,-0.36945,-0.46744
0.008283,0.60516,0.14424,-0.3493,-0.79341,-0.4149,0.0091582,-0.83681,-0.58503,-0.1103,0.089188,-0.59771,-0.031583,-0.12593,0.67743,0.57007,-0.29614,-0.90017,-0.68111,-0.061591,0.37848,0.39766,0.17636,-0.2913,-0.14135,0.08246,0.26818,0.11332,-0.7335,-0.52869,0.58907,0.34734,-0.91164,0.29082,-0.50333,0.62587,-0.39259,-0.28419,0.33205,-0.90701,-0.56076,-0.48458,0.89056,-0.34763,0.27936,-0.034432,-0.46892,-0.7114,-0.79784,-0.73856
-0.95446,-0.65839,0.36626,-0.96875,0.91511,-0.91364,0.89285,-0.56218,0.22496,0.55006,0.21319,-0.63707,-0.057146,0.22385,0.60994,-0.47046,0.92475,0.23567,-0.086879,0.81441,-0.58693,-0.74025,-0.016147,0.48015,0.8619,0.48843,-0.39894,0.7701,0.14961,0.1963,0.5407,0.31991,0.87158,0.050738,-0.27074,-0.63577,-0.1214,-0.71751,-0.071418,-0.42067,-0.90609,-0.51152,0.059774,0.081593,-0.66512,0.67841,0.93645,-0.75308,0.94334,0.34394
-0.48149,0.73928,0.009761,-0.2393,-0.9763,0.23411,0.51897,-0.70788,0.71765,0.4191,-0.55299,0.89537,-0.31966,0.48182,0.7721,0.034753,-0.55092,-0.88508,-0.47322,0.14974,0.69009,0.10283,-0.3139,-0.53583,-0.21801,-0.50495,0.95683,-0.23235,-0.029154,0.84516,-0.30139,0.12836,-0.39769,0.39974,0.015884,-0.26499,-0.73003,-0.55894,-0.21212,-0.29046,0.81524,0.65046,-0.51167,0.51828,0.31473,0.58694,-0.79841,0.59373,-0.81049,-0.61642
-0.66532,0.1354,-0.87718,0.43279,-0.59171,0.20171,0.2098,0.47499,-0.56116,0.77788,0.20346,-0.7017,0.25129,0.16047,-0.61878,0.50513,-0.65297,0.096759,0.79221,0.34816,-0.016522,-0.97786,0.47311,-0.69912,0.41017,0.70208,0.94524,0.55255,-0.95613,-0.76596,-0.27627,0.46154,-0.063312,0.64938,0.77433,0.8027,-0.6315,-0.12483,0.53249,0.7614,0.71484,-0.48453,-0.43371,0.63777,-0.61985,0.047852,-0.7555,0.20939,-0.06765,0.14918
0.65993,-0.57045,0.69648,0.1954,-0.66397,0.9156,0.39335,0.38688,-0.89452,0.85122,0.68192,-0.82163,-0.88449,0.026342,-0.85221,0.68164,0.34199,0.13996,0.31371,0.1582,-0.84963,0.24812,0.70292,-0.87614,-0.2913,-0.025475,-0.68021,0.85929,-0.072487,-0.21132,-0.21965,0.50486,-0.77339,0.15771,-0.90066,0.83531,0.11033,-0.61479,-0.7602,-0.58569,0.12058,-0.75527,0.84426,0.20716,-0.85786,-0.20258,0.37758,-0.9848,-0.14086,-0.90009
-0.14817,0.6758,0.056959,-0.69059,0.77824,-0.31333,0.91462,0.54435,0.13429,-0.21975,-0.084398,-0.8128,0.65546,0.16054,0.077359,-0.9308,-0.97496,-0.90727,-0.67675,0.35931,-0.11085,-0.79161,-0.80786,0.48491,0.97343,0.92923,-0.8005,-0.29725,0.056099,0.58327,0.6517,-0.85178,0.028919,-0.52683,-0.38412,0.45922,-0.47208,-0.056647,-0.22002,-0.33405,-0.20469,0.42785,0.079876,0.025669,0.5958,-0.98539,-0.30611,-0.29411,0.6038,-0.3896
-0.60382,0.84724,-0.42921,0.70375,-0.38811,0.32697,0.88669,0.72183,0.54116,0.19498,0.10511,-0.14521,-0.066173,0.075965,0.39927,0.60941,0.50956,0.22416,0.035202,-0.90966,-0.8183,0.50723,0.24561,0.8724,-0.76666,-0.21358,-0.40086,0.096127,0.029055,0.81184,0.1796,0.28193,0.96069,-0.1475,0.025663,-0.44751,-0.032209,0.010985,-0.56597,0.10655,-0.041747,0.6507,0.004446,0.99613,-0.39415,0.35046,-0.96942,-0.13627,0.2296,-0.88413
0.61713,-0.42412,0.42578,0.5454,0.82695,-0.95779,-0.43165,-0.43153,0.52328,-0.39455,0.36335,-0.57889,-0.31151,-0.65728,-0.97076,-0.93949,-0.63575,0.17319,0.031603,-0.69701,-0.7636,0.83882,0.53454,-0.17487,-0.37489,-0.55556,0.42837,0.12897,0.79712,-0.64577,-0.70919,-0.7256,0.44476,0.97424,0.31967,0.22075,-0.82106,0.96967,0.38857,-0.37211,0.22196,0.93075,-0.18026,-0.16814,-0.6365,-0.96034,-0.53264,0.88165,0.38828,-0.32061
0.25836,-0.0067214,-0.82813,0.13142,0.9863,-0.39722,-0.56749,0.16575,-0.36841,0.83821,-0.39316,0.09836,-0.52754,0.79914,-0.091749,0.064732,0.50516,-0.76108,0.63303,-0.93925,0.75977,0.27923,-0.0235,0.95276,0.5428,0.29153,0.82121,-0.49693,-0.69654,-0.77025,-0.83581,0.44321,-0.89306,-0.71889,0.41643,0.87401,0.86966,-0.11825,-0.51101,0.51198,0.32808,0.1893,0.28163,-0.28285,0.80998,-0.79774,0.28504,-0.4054,0.96882,-0.8606
-0.53042,-0.14245,-0.49746,0.70059,-0.92109,-0.35621,-0.079421,-0.43183,-0.34579,-0.51711,0.87044,-0.062059,0.35625,0.55246,-0.51062,-0.36137,0.38105,0.43162,-0.41012,0.65797,0.97181,-0.70387,-0.10008,-0.32365,0.8252,-0.099793,0.9353,-0.016324,0.70297,-0.93831,-0.78404,-0.42738,0.51076,-0.12409,0.26993,0.53404,-0.58645,0.42043,0.59979,0.8998,-0.20916,0.27329,0.41397,-0.62131,-0.7015,0.76411,0.47714,-0.62322,0.43969,-0.86037
-0.96618,0.051941,-0.68517,0.63857,-0.46042,0.63849,-0.55933,-0.02347,0.36415,0.73467,0.7362,-0.82797,0.88865,0.4995,0.71843,-0.41558,-0.53115,-0.53279,-0.96887,0.32404,0.38479,0.55512,-0.50786,-0.27864,-0.99159,-0.63805,-0.063111,0.0062729,-0.60092,-0.36252,0.92429,0.6384,0.19537,0.4256,-0.028398,-0.39257,-0.35531,0.87633,-0.39101,0.90528,0.14923,0.93102,-0.52374,0.38171,0.46934,0.21022,-0.8675,0.49605,-0.84172,-0.053027
-0.32082,0.95609,0.81808,0.5561,-0.95877,0.092664,0.43646,-0.90798,-0.49012,-0.72056,0.21538,0.98504,-0.79812,0.36624,-0.39009,0.16225,0.16789,0.4946,0.93673,0.086619,0.53414,0.74565,0.71948,-0.87325,-0.060462,-0.68351,-0.45931,0.21345,-0.29336,0.71901,-0.3525,0.4736,0.48489,-0.94431,-0.66053,0.079448,-0.2415,-0.61116,0.71754,0.96261,0.27098,0.1332,0.86803,0.52183,0.89067,0.064847,-0.31208,-0.76275,-0.85564,-0.97513
-0.26097,0.79309,-0.99947,-0.54933,-0.54915,-0.20536,-0.25061,0.24638,0.62029,0.49878,-0.85927,0.82021,0.39955,-0.78394,-0.88618,-0.51422,-0.4753,-0.15449,-0.1548,-0.86714,0.099522,-0.71412,-0.74362,0.74485,0.60236,0.23901,-0.87734,-0.35946,-0.91476,-0.33078,0.10994,0.28736,-0.65052,0.4974,-0.71845,0.096794,0.18126,-0.6591,0.41405,0.41398,-0.14298,-0.87036,-0.53106,-0.2216,0.24118,0.039365,0.77176,-0.40919,0.89406,-0.80378
0.61392,0.91966,0.4104,0.29083,0.69466,-0.48252,-0.25426,0.8177,0.32424,0.70326,0.24855,-0.92511,-0.22136,0.63029,-0.90718,0.6359,-0.08478,0.26111,-0.98302,-0.18019,0.57514,-0.1213,0.99809,0.20592,0.45307,-0.13264,0.092276,-0.10582,-0.69947,-0.048532,0.73984,0.8361,0.90794,-0.13254,0.88588,0.3079,0.6808,0.31112,0.64685,0.21039,-0.63377,-0.89783,-0.47959,-0.9494,0.10747,0.51771,0.037635,-0.19336,0.63052,-0.44572
0.058742,-0.54615,-0.23627,-0.87773,0.14265,0.18602,-0.69113,0.45841,0.2272,0.42614,-0.75737,-0.65232,-0.84351,0.2798,-0.67425,0.73493,0.24173,-0.25783,0.93034,0.34272,-0.84154,0.13108,0.038595,0.13594,0.51674,0.27568,0.12941,0.097525,-0.53929,0.88811,-0.14821,0.47406,-0.7829,0.63416,-0.77115,-0.41548,-0.043078,0.42064,-0.77229,0.16714,0.57095,0.70062,0.11023,-0.027346,-0.34559,0.44823,-0.35308,-0.40647,-0.19294,0.086686
-0.63185,-0.75241,-0.13562,0.8009,-0.68749,-0.986,-0.67572,0.50099,0.11236,-0.76526,-0.10884,0.30583,0.65369,0.46457,0.89265,0.9294,0.20232,0.32642,0.78425,0.86519,-0.57938,-0.3138,0.36987,-0.44927,-0.21002,0.163,-0.059411,0.083956,0.61476,-0.9327,0.17712,0.36921,-0.62863,0.59447,0.68499,-0.24354,0.085737,-0.94458,0.2531,0.1395,0.051512,0.7648,-0.46004,-0.89215,-0.16019,0.75046,0.036318,0.85962,-0.43982,-0.65974
0.28551,0.33913,-0.91857,-0.41758,-0.59798,0.72193,-0.22404,0.82754,-0.18026,-0.32068,0.4177,-0.8888,0.4058,-0.93107,-0.00084408,0.44931,-0.38624,0.030886,0.88157,-0.28591,-0.51851,0.4578,0.15031,0.52606,0.59112,-0.92719,-0.38515,-0.49831,-0.042943,0.26354,0.35675,-0.13855,0.71838,-0.088025,0.072519,0.58674,0.92412,0.73209,-0.53481,-0.041733,0.93337,0.89232,-0.68257,-0.076497,-0.060437,-0.48616,-0.63581,0.66412,0.066425,-0.65231
-0.66329,0.66377,0.37409,0.043009,0.33267,0.12743,-0.55006,-0.36972,0.019676,0.3147,-0.668,0.2875,0.20887,-0.89381,0.66472,0.42684,0.2373,0.32383,-0.41276,-0.11716,0.95878,0.48282,-0.37668,0.21565,-0.17033,0.5162,-0.69718,0.69112,6.8694e-05,0.62589,-0.93092,0.52871,-0.33925,-0.16539,-0.0025576,-0.017193,-0.48368,-0.35431,-0.86894,-0.48601,-0.33935,0.84668,-0.48044,0.44866,-0.95174,0.95956,0.34263,0.0075148,0.1432,0.17959
-0.57965,-0.58304,0.61077,0.19226,-0.38643,-0.048112,0.6731,0.57226,-0.79751,-0.7433,0.66358,-0.27748,-0.87315,0.81152,-0.08822,-0.16013,0.0018836,0.64082,0.016564,0.49372,-0.1357,-0.071948,-0.13278,0.039908,-0.76161,0.14498,-0.07466,-0.025571,0.41056,0.017838,-0.81021,-0.23942,-0.55135,0.84974,0.074462,0.8742,-0.46617,0.3786,0.83196,-0.15582,-0.16983,-0.24059,0.69938,0.272,-0.4751,0.34851,-0.89764,-0.35732,0.33871,0.30594
-0.19943,0.34587,0.012104,-0.66251,-0.33247,-0.37137,0.68809,-0.25721,0.87576,-0.35344,0.602,-0.1965,0.18942,-0.083105,0.55275,0.67524,0.10355,0.48758,0.78684,0.29461,-0.44788,-0.60487,-0.94443,-0.81226,0.32253,-0.88583,0.6968,0.61096,-0.76878,0.94167,0.52446,-0.62429,-0.16522,0.09665,0.97115,0.49688,0.7037,-0.0073405,0.70146,0.027788,-0.99178,0.74279,-0.74776,-0.63099,-0.31974,-0.93127,-0.42776,-0.45546,0.62238,0.091101
-0.99763,0.68147,-0.63184,0.64835,-0.34291,-0.90283,0.65337,0.07145,0.6104,0.31235,0.25199,-0.05155,-0.21504,-0.30124,-0.58364,-0.98088,0.029835,0.46677,-0.30063,-0.36978,0.056977,0.21193,0.57413,-0.45785,0.12456,-0.5481,0.36311,-0.24066,0.073277,0.73643,0.30173,-0.14715,0.90235,-0.81464,-0.33893,0.15964,-0.94898,0.58933,0.67167,0.49909,-0.70413,0.15224,0.55127,-0.39551,0.055419,0.50175,0.63327,-0.4318,-0.79948,0.47986
0.17496,0.92044,0.70264,-0.24688,-0.39134,0.54725,0.52314,-0.0044977,-0.89863,-0.082974,0.84066,0.03582,0.93629,-0.47537,-0.72283,0.057379,0.21507,0.3499,-0.6763,-0.43361,-0.6828,0.1406,-0.44455,-0.8426,-0.14087,-0.98818,0.22731,-0.63397,0.040781,-0.52241,-0.67613,0.44227,-0.57272,0.45636,-0.36118,-0.60172,0.062856,0.82048,-0.8611,-0.46769,-0.084668,-0.62463,-0.94907,-0.2837,-0.44567,0.63515,0.10877,0.97761,0.14403,-0.56499
-0.67637,0.55228,0.74454,-0.27381,-0.51624,-0.92834,0.60919,-0.24242,-0.91211,0.10767,0.79511,0.9297,0.11016,-0.72545,-0.26544,0.70053,-0.889,-0.95332,-0.092438,0.84117,-0.36969,0.16853,-0.25013,-0.93079,-0.067728,0.22039,0.4315,0.042065,0.91405,-0.31155,0.90751,0.95108,-0.13612,-0.31369,-0.50162,0.16384,-0.61374,0.53556,-0.58704,-0.8237,-0.82777,0.98579,0.23697,-0.20852,-0.82678,0.75879,-0.26721,0.29716,0.56471,-0.40342
0.026465,-0.75309,0.33613,-0.037756,-0.54397,-0.022342,0.75849,0.69866,-0.17172,-0.53833,0.73718,-0.73195,-0.038065,0.54888,0.24291,0.19992,-0.39858,0.77047,-0.47277,0.3606,0.3882,-0.93522,-0.45102,-0.55545,0.73135,0.40169,0.17481,-0.64912,-0.6412,-0.90704,-0.30913,-0.52362,-0.93579,0.64696,0.87001,0.078833,-0.41505,-0.82498,-0.3124,0.25321,-0.87881,0.78486,-0.4567,0.89114,-0.0489,-0.85834,-0.60136,0.53871,0.033334,0.43177
0.066311,0.16108,-0.81826,-0.9144,-0.54594,-0.042457,-0.74265,-0.47961,0.050807,-0.33836,-0.89263,0.5777,0.11908,0.62178,0.48878,0.26244,0.64516,0.047799,0.9449,-0.87849,-0.47395,-0.6367,0.67957,0.92923,0.91097,-0.14621,-0.11551,-0.85171,0.069055,0.13549,0.94119,0.61949,0.97426,-0.20326,-0.94385,-0.6036,0.9812,-0.33753,-0.41062,-0.10653,-0.42319,-0.95793,-0.94749,-0.15594,0.11897,0.37291,0.38725,0.80578,0.17245,-0.68608
0.54403,-0.32996,-0.35806,-0.10384,-0.0078266,0.014957,0.79241,-0.69489,0.26473,0.7601,0.92084,-0.32461,-0.97809,-0.59274,-0.90625,-0.30072,-0.2167,-0.37928,-0.33917,0.17363,-0.82556,0.1314,-0.89596,-0.41495,-0.83127,0.96047,0.060083,0.95354,0.67702,0.16956,-0.883,0.26953,0.00012882,0.80024,0.21638,0.56122,0.35512,-0.12211,0.19517,0.0090712,-0.73972,-0.15368,-0.18567,0.59152,0.062807,-0.11,-0.39764,-0.016012,0.097271,0.17016
-0.21313,0.73104,0.44632,-0.49768,0.36773,0.040356,-0.21413,0.010023,-0.4489,0.56312,-0.016201,-0.061727,-0.37259,0.77915,0.87028,-0.51473,-0.39079,-0.68043,0.90418,-0.60938,-0.18891,-0.70088,0.14779,-0.074664,0.058317,0.62472,0.38063,-0.51278,0.34127,-0.9339,-0.66781,-0.89718,-0.15403,-0.031531,0.81208,0.34085,0.37186,0.24604,0.93832,0.54479,-0.013649,0.6675,0.41038,-0.10403,-0.36995,-0.63039,-0.18075,-0.65062,-0.27298,-0.87163
-0.78214,0.68199,0.284,-0.46451,0.74971,-0.39876,-0.54872,0.60556,0.21042,-0.16725,-0.42997,0.05565,-0.49235,-0.29927,0.45315,0.72758,-0.053173,-0.74581,0.32336,-0.86332,-0.83411,0.48336,-0.11776,0.36103,-0.85042,-0.28648,-0.6165,-0.5011,0.076101,0.67368,-0.95022,0.71687,-0.53371,-0.45075,0.82533,-0.86776,0.74131,-0.40119,-0.53158,0.79663,-0.97242,0.30229,0.86319,-0.30328,-0.38348,0.30148,-0.57818,-0.31187,-0.5455,-0.18114
0.39868,-0.37999,-0.29448,-0.12147,-0.60006,-0.082119,-0.014234,-0.94472,0.64917,-0.29502,-0.12822,0.73297,0.66911,-0.84667,0.93912,-0.55631,-0.16128,-0.2088,0.82128,0.095821,-0.60145,0.0067418,-0.059409,-0.60181,0.63018,-0.90217,0.37355,0.66103,-0.62269,0.31752,0.3709,0.27141,-0.87153,0.32246,0.86009,-0.86672,-0.49426,-0.83668,-0.10095,-0.44622,-0.34275,-0.1601,-0.8806,0.89369,0.014828,-0.37233,-0.43667,-0.41003,0.37596,-0.26298
-0.046333,0.63994,-0.0013619,0.45335,-0.22073,-0.10938,0.035483,-0.13605,0.61996,0.80903,0.51464,0.51882,0.66008,-0.95039,0.038112,0.39699,-0.2782,-0.87471,-0.7469,-0.30621,-0.93952,-0.72809,-0.73372,0.14261,-0.97752,0.75972,0.59117,0.70355,-0.7365,0.84518,0.036374,-0.40767,0.86671,0.23811,-0.41908,0.12685,-0.94676,0.73514,-0.52271,-0.87481,0.31547,0.50051,-0.8566,-0.63954,0.59968,-0.57548,0.67088,0.48394,0.89575,0.13321
0.88251,0.11918,0.47058,-0.1855,0.09502,0.34907,-0.50194,-0.5306,0.25738,0.48653,-0.77033,0.51607,-0.94008,-0.9664,-0.81462,-0.077428,-0.48354,-0.28301,-0.37019,0.090404,-0.63846,-0.58885,-0.53056,-0.89002,-0.46127,0.21786,-0.97093,-0.92908,-0.76016,0.87445,0.61723,0.56775,0.52052,0.32243,-0.015098,0.19037,0.79089,0.46862,0.98896,0.85037,0.010281,-0.8639,-0.52524,0.40683,0.88087,0.26674,0.65203,0.21193,0.42589,0.81953
-0.69451,0.38027,0.04055,-0.55848,-0.51014,-0.37849,0.33745,0.59996,-0.20001,0.733,0.10161,0.72257,-0.27001,-0.88885,-0.21101,-0.53824,-0.53645,-0.16013,0.47006,-0.71507,0.72484,0.85261,-0.69326,0.31429,0.42484,-0.86692,-0.048463,-0.10392,0.27536,-0.9563,0.97065,0.33853,0.3539,0.33706,-0.017771,0.43846,-0.20089,-0.95206,0.59037,0.6893,0.66609,-0.28941,-0.75554,0.57512,-0.64547,-0.91599,-0.12036,-0.42649,-0.61361,0.097847
-0.96258,0.23478,0.61806,-0.26338,0.22554,-0.62148,-0.89098,0.50708,-0.108,0.56636,0.8806,0.63796,-0.014058,-0.50191,-0.96056,0.67732,-0.82143,-0.60969,0.78278,-0.80205,0.68689,-0.90575,-0.19405,-0.89649,0.77226,-0.54153,0.97842,-0.81256,-0.66884,-0.8223,0.54975,-0.02423,0.60923,-0.55191,-0.36006,-0.071886,-0.37377,0.52036,0.69,0.1607,-0.30869,0.91516,-0.85287,0.6822,0.89339,0.69265,-0.75269,0.1076,0.5162,0.45574
0.60324,0.81182,0.20134,0.95441,-0.45178,-0.65606,-0.12757,0.88867,-0.44913,0.24024,0.14231,-0.21914,0.98494,0.037563,-0.31622,-0.44358,-0.60109,-0.40249,0.20257,0.537,-0.70325,-0.25933,0.69653,0.83773,0.48665,0.28869,-0.098069,0.98635,0.29557,-0.6267,0.46055,0.96542,-0.61696,-0.64121,0.41552,0.86898,0.41263,0.264,0.56571,0.75181,-0.48427,0.87965,-0.64096,0.17637,-0.61742,0.22262,0.91583,0.67195,0.54546,-0.86512
-0.79138,-0.58596,-0.96168,0.69063,-0.23291,-0.98814,0.67442,0.50773,0.76495,-0.9097,-0.054893,-0.56073,-0.7882,0.70377,0.32703,0.098893,-0.94058,0.35248,-0.66963,0.045045,0.25306,-0.94421,-0.8669,-0.61901,-0.010227,-0.26553,0.28967,0.21909,-0.85818,0.80677,-0.90824,0.4349,0.37078,0.28274,-0.85418,0.25467,0.65977,0.25142,-0.41371,-0.21155,-0.23414,-0.11316,0.74634,0.37787,-0.0037413,0.011325,0.93907,0.097885,0.96122,0.46905
-0.0053783,-0.86284,-0.50137,-0.36641,-0.17084,0.92965,-0.27237,0.61008,-0.48551,0.99423,-0.28378,0.24609,0.88603,0.19595,0.908,0.29356,-0.89607,0.31641,-0.20926,0.55796,-0.119,0.096172,-0.076702,0.58158,-0.60943,0.10268,0.5934,-0.051928,0.89445,0.71991,0.93152,-0.74742,-0.51226,-0.97629,-0.94017,0.11189,-0.090419,0.45327,0.9365,-0.4647,-0.21865,-0.84008,0.70189,0.054498,-0.019673,0.66629,-0.4542,0.93006,0.18014,0.29412
-0.92714,0.83127,-0.82395,0.80804,-0.56337,-0.75261,0.48535,-0.76418,-0.34893,-0.81075,-0.089996,0.80058,-0.45818,-0.048318,-0.66966,-0.91168,0.64831,0.46602,0.71746,0.63625,0.35849,0.78277,-0.93821,-0.44737,-0.37203,0.49032,0.34238,-0.63205,-0.1774,0.11236,0.18413,0.7678,-0.19508,0.86158,-0.22433,0.39673,0.31412,0.19832,0.97266,0.39318,-0.52805,-0.26136,0.71116,-0.8321,0.80299,0.49648,0.34712,0.55268,-0.32735,0.58599
-0.0058746,-0.77975,-0.4927,0.95811,-0.01865,-0.37188,-0.91143,0.43515,-0.752,0.4861,0.52771,-0.18129,-0.23845,0.16839,-0.33398,0.86798,0.73118,0.15505,0.71051,-0.40319,0.46214,0.83156,-0.81673,0.74195,-0.3325,0.13254,-0.22254,-0.75202,0.24503,-0.51405,0.95032,-0.012006,-0.75373,-0.15128,-0.24139,-0.49823,-0.26715,0.95206,-0.59345,-0.27776,0.96657,-0.90326,0.10088,0.69987,0.62445,0.98203,-0.45678,-0.61152,-0.57258,0.46215
0.70865,0.5481,0.51997,0.11761,0.0031257,-0.52918,-0.89924,-0.89292,-0.96323,-0.31504,0.81251,0.22552,0.30908,0.99247,-0.94777,-0.6666,-0.08642,0.16219,0.30549,-0.96888,0.68824,-0.70867,-0.76984,-0.74739,-0.64754,0.85405,0.15524,0.080229,-0.64268,0.76185,-0.61506,0.99906,0.16574,-0.81967,-0.75462,-0.2847,0.99337,0.69954,0.36871,0.52677,0.41509,-0.20458,-0.13624,0.82711,0.43731,-0.86471,0.093451,0.2619,0.7038,0.99429
-0.82987,-0.064738,-0.12027,-0.95726,-0.49064,-0.30442,-0.1489,0.87979,-0.66296,-0.87819,0.055217,0.97602,-0.67659,-0.79467,0.65003,-0.27594,-0.56055,0.23396,-0.073992,0.93512,0.61869,0.25979,-0.34361,-0.42138,0.98625,-0.20194,-0.98045,0.78444,0.20135,0.2908,0.85978,-0.040826,-0.64832,-0.87062,0.1161,-0.089885,-0.60712,0.72124,-0.12117,-0.33659,-0.39069,-0.075168,0.7828,-0.64313,0.15368,-0.89569,-0.71789,0.29624,0.8361,0.97292
-0.28494,-0.4753,0.095602,0.27054,-0.12364,-0.5433,0.66547,-0.61483,-0.58062,-0.52044,-0.39014,0.37074,-0.78142,-0.51603,-0.36406,-0.44831,-0.85196,-0.46508,-0.86887,-0.10829,-0.17117,0.77893,-0.53436,0.42604,0.27278,-0.73033,-0.24582,-0.0066109,0.16321,-0.39204,0.074768,-0.24858,-0.24735,0.55586,0.43383,0.5748,0.29776,0.9899,-0.50326,-0.25371,-0.6227,0.22688,-0.82999,0.78349,-0.18537,0.62215,0.39051,-0.45011,-0.8651,-0.26755
-0.15083,0.3053,0.60998,0.64911,-0.72788,0.63639,-0.12866,-0.26785,0.6621,0.18837,0.023986,-0.77131,0.89761,0.62664,0.045339,0.3449,-0.1378,0.25606,0.29859,-0.66267,-0.73062,-0.37578,0.65824,0.524,0.39076,-0.74698,0.59333,-0.2682,-0.93854,-0.062376,0.78949,-0.033857,0.069715,-0.37187,-0.19908,0.80468,-0.8886,0.77619,-0.14161,-0.69418,-0.20812,-0.2879,0.23132,0.046215,-0.092432,0.57501,0.89047,0.36597,-0.10102,-0.76598
-0.98543,-0.15413,0.076633,0.91057,0.34566,-0.23072,0.85105,0.028994,0.051612,-0.61104,0.83306,-0.10169,0.58673,0.45164,-0.047776,-0.96627,0.4697,0.3071,0.12749,-0.6761,-0.73385,-0.18857,0.61018,0.41756,-0.78476,0.229,-0.48373,-0.23037,0.96007,-0.33112,0.52501,-0.75972,-0.016567,0.079215,0.98775,0.32439,-0.38636,0.34818,0.48308,0.71228,0.57054,0.5872,-0.27857,-0.57822,-0.10285,0.53747,0.30021,-0.30744,0.085821,-0.36986
0.27146,-0.36875,0.95697,-0.95624,0.077221,0.56689,-0.70927,0.74232,-0.6654,0.56916,0.5511,0.62114,0.69085,-0.89026,0.55988,-0.8497,-0.96596,0.70055,-0.70136,0.52918,0.12053,-0.76136,0.97722,0.38744,0.07187,-0.064392,0.77567,0.97677,0.16549,-0.27446,-0.79804,0.37702,0.88305,-0.41425,0.72425,-0.31059,-0.27034,0.24757,-0.86237,-0.27295,-0.54514,0.98743,0.40562,0.72657,0.44792,-0.43584,-0.61175,0.75954,-0.73222,0.52366
-0.33041,-0.78011,-0.58767,0.29262,0.15409,-0.25457,-0.031782,-0.93274,0.38068,0.6917,0.51874,-0.8935,-0.83654,0.52569,-0.091756,-0.80672,0.081046,-0.98635,0.8954,0.25209,-0.9027,-0.87033,0.21364,0.79948,0.28983,0.12158,-0.45389,-0.87932,0.25511,0.51588,-0.19956,0.49517,-0.36353,-0.039359,0.47951,0.95838,-0.084604,0.83127,0.80228,-0.41827,0.34628,0.79235,0.34206,-0.41596,-0.66912,0.19215,-0.34863,0.98778,-0.47532,-0.51096
-0.43577,-0.72607,0.84785,-0.077607,-0.51191,-0.16281,-0.87481,0.0047452,-0.57847,-0.44305,0.61146,0.24478,0.18878,-0.42741,0.26295,0.76513,-0.95826,0.32275,0.45372,-0.58974,0.47308,0.45494,0.60119,0.41332,-0.48205,0.15141,-0.97357,-0.072654,-0.45886,-0.92949,-0.82987,-0.22113,-0.85687,-0.078017,-0.50809,0.12076,-0.74481,0.81449,-0.26127,0.88859,-0.20568,-0.7472,0.99258,0.85974,0.60353,-0.77761,-0.31532,-0.85759,-0.73497,0.89966
-0.40013,-0.71156,-0.79171,0.23396,-0.042516,0.41752,0.20278,-0.50689,0.22853,0.0084723,0.60064,0.8264,-0.89125,0.0073794,0.64101,-0.8339,-0.64182,0.93424,-0.32643,0.55712,-0.007577,0.35017,0.46351,0.56946,0.64182,-0.76531,-0.21271,-0.54935,-0.35321,0.79861,-0.73295,0.45781,0.79278,-0.37541,0.050428,-0.31454,0.69654,0.41334,0.062856,-0.23199,0.29661,-0.089444,-0.59391,0.85871,0.55571,0.3656,0.62027,0.98285,-0.84304,0.96101
-0.56448,0.38651,-0.73497,-0.8312,-0.68569,0.97983,0.96996,0.54591,0.17134,-0.84537,0.080393,-0.91419,-0.089088,-0.59852,-0.14133,-0.95588,-0.97426,-0.087075,-0.75862,0.20195,-0.32867,-0.052274,0.54154,-0.33571,0.037715,-0.17583,0.067731,0.32957,-0.048504,-0.60218,-0.90071,0.70619,0.25852,0.43225,0.43405,0.23613,0.87383,-0.099086,0.77047,0.77123,-0.87294,-0.9474,-0.028218,-0.23697,0.35773,0.4232,0.67832,-0.39382,0.52925,0.79242
-0.14663,0.25931,0.24643,-0.54704,-0.76059,0.36448,-0.83251,0.29745,-0.90412,0.1033,-0.33058,-0.5775,0.69146,0.63787,0.49718,0.21564,-0.13122,-0.50394,-0.32565,-0.62022,-0.64159,0.96306,0.054083,-0.61894,-0.96493,-0.14548,-0.66568,0.69197,0.53902,0.95327,0.13722,0.79289,0.96969,0.27763,0.63409,-0.61482,0.13407,-0.032482,0.11613,-0.21323,-0.20125,0.95244,-0.86763,-0.92668,-0.14016,0.77131,0.77617,-0.66335,0.68555,-0.086149
-0.79567,0.92302,-0.02668,-0.35719,0.58182,0.71583,0.57196,-0.74409,-0.14263,0.72407,-0.91666,0.68011,-0.61034,0.98931,0.11233,0.30625,-0.87178,-0.72578,-0.59818,0.1012,0.28664,-0.47135,-0.17298,-0.050265,-0.64336,-0.73279,0.048569,0.12797,0.693,-0.84622,-0.69433,-0.48875,0.28695,0.52126,-0.49586,0.37337,-0.43867,-0.31702,-0.61039,-0.30934,0.78315,0.37795,-0.68392,0.22399,-0.26082,-0.034209,-0.29942,-0.84007,0.056001,0.79739
0.063893,0.20657,0.92826,0.53514,-0.20565,-0.043089,0.99842,-0.44357,0.7056,-0.84803,-0.80986,0.28391,-0.90006,0.64358,0.27269,-0.90829,0.41591,0.11427,-0.13011,-0.066566,0.17073,0.219,0.31645,0.60841,-0.31605,-0.88141,0.38149,0.52048,0.85517,-0.5639,-0.89112,0.10591,0.86777,0.76718,-0.54626,0.49103,-0.31488,0.18637,-0.067251,-0.79588,0.74162,-0.73015,0.70644,0.19291,0.81904,0.77931,0.94934,-0.58279,-0.24811,0.74097
0.098533,0.53782,0.47113,-0.32106,-0.0043027,-0.90532,0.25795,0.81081,-0.15592,0.48539,-0.68507,-0.98297,0.54214,0.16626,-0.18573,-0.63351,0.20574,-0.35852,-0.67699,0.5943,0.98385,-0.52418,-0.53572,-0.373,-0.75731,0.26873,0.40095,0.36708,0.49598,-0.7189,-0.19905,0.32146,0.81218,0.80557,-0.13791,0.9973,0.21056,-0.54158,0.44213,0.62578,-0.19828,-0.47316,-0.96126,-0.75146,0.24645,0.44045,0.53838,0.18759,-0.92065,0.7933
0.032431,-0.21364,-0.53745,-0.044967,-0.35895,0.13226,-0.14129,0.85767,-0.52982,0.78847,0.78167,-0.949,-0.38426,0.79099,0.94596,0.46663,0.60523,0.73134,-0.41487,-0.74758,0.38112,0.11605,0.6873,-0.35808,0.32142,0.58377,0.33043,0.14871,0.71143,-0.22111,-0.057117,0.38906,0.28075,-0.23987,0.27977,-0.63186,-0.19548,0.89536,0.062091,-0.72265,-0.28866,0.91166,-0.63649,0.867,-0.284,-0.55457,-0.099553,0.8821,0.60768,0.72439
0.074281,0.48416,0.29913,0.75093,-0.24629,-0.53396,0.85573,0.049583,0.30353,0.75044,-0.0061262,-0.68299,0.47093,0.43916,-0.068558,-0.27966,-0.35831,0.43406,-0.17069,-0.82938,0.48064,-0.40076,-0.62097,-0.70781,-0.48441,-0.81601,0.16146,-0.41512,0.029195,0.42414,-0.5916,0.9209,-0.076069,0.93748,0.75147,-0.94129,-0.2181,-0.60476,-0.21718,-0.42732,0.53645,0.25818,0.13316,-0.88107,-0.20549,0.29006,0.72951,-0.90226,-0.22435,-0.27926
0.15221,0.92872,-0.67673,0.2667,-0.20286,0.56235,-0.27517,-0.9471,-0.8587,0.099133,-0.38606,-0.99695,-0.78951,0.32668,-0.53708,-0.46022,0.8448,-0.96722,0.81579,-0.65208,0.80426,-0.74984,0.59372,0.33022,-0.038088,-0.1595,0.90585,-0.59185,0.31889,-0.93471,-0.63406,-0.16858,-0.42584,-0.38736,-0.70416,-0.53855,-0.095608,-0.96243,0.48313,-0.87252,0.54762,0.16229,-0.29204,0.20057,0.54148,-0.46042,-0.89376,-0.67194,-0.89185,0.092912
0.10934,-0.25856,-0.94301,-0.86982,0.45546,-0.71254,0.73919,-0.5783,-0.70351,0.49705,0.34942,-0.67064,-0.65746,-0.66544,-0.76252,0.48803,-0.55691,0.2629,0.76301,-0.40189,-0.4203,-0.27493,0.085192,0.26411,0.96337,-0.63427,-0.48353,-0.41892,-0.57799,0.29953,0.54688,0.52414,0.79771,0.59061,0.93362,-0.77681,0.3634,0.039923,-0.20343,0.9688,0.070945,-0.74853,0.82384,-0.14072,0.34885,0.34713,-0.839,-0.27792,-0.83463,0.073856
0.92713,-0.99274,0.73525,0.16381,-0.04683,0.11021,-0.49408,-0.073651,-0.97204,-0.83846,0.3827,0.98954,-0.96125,-0.21346,0.37506,0.34131,-0.67019,-0.19974,0.58997,0.42963,0.38165,0.16887,0.88473,-0.27915,0.69902,0.98758,-0.97586,-0.15409,-0.52889,-0.017808,0.21341,-0.8199,-0.66685,-0.0012741,-0.30676,0.17518,-0.5684,-0.39695,-0.42725,-0.91943,-0.85435,0.35626,0.6301,0.60652,0.039564,0.90319,0.42614,-0.46088,-0.85783,-0.64467
0.52484,-0.82017,-0.67666,-0.091907,0.30449,-0.19455,-0.42629,0.64092,-0.13245,-0.45241,-0.95335,-0.040718,0.98939,0.080245,-0.15167,-0.42215,-0.21723,-0.47353,-0.61935,0.13095,0.55656,0.19135,0.24826,-0.17356,0.24254,-0.47876,0.34268,-0.71916,0.27535,0.93702,0.82189,0.16524,-0.43035,0.034468,0.23268,-0.48912,-0.31588,0.77629,0.56553,-0.57294,-0.49787,0.09921,0.022779,0.52619,0.22201,0.18652,0.89107,0.28089,-0.90879,-0.60952
0.30541,-0.77303,0.57811,0.9817,0.21838,0.0040597,-0.16747,-0.33621,0.7035,0.46615,0.98549,-0.10299,0.80688,0.34306,-0.99594,-0.46763,-0.073334,-0.54282,0.36987,-0.51186,-0.13433,-0.53844,0.60355,-0.29133,-0.3259,-0.13176,-0.12449,0.0043917,0.19116,0.86736,0.22059,-0.80934,0.15946,-0.6287,-0.028142,-0.79889,0.39428,0.44649,-0.52547,-0.035473,0.32307,0.05689,-0.2606,0.74756,-0.36977,-0.40287,0.0085605,-0.84489,0.65541,-0.51127
-0.27556,-0.98272,-0.83032,-0.72488,0.44004,0.75427,0.59146,0.60866,0.17211,0.21339,-0.60189,0.27451,-0.2765,0.53737,0.1442,0.40509,0.023097,-0.037721,-0.62841,-0.15857,0.19396,0.81899,0.9508,-0.79961,-0.079288,0.62479,-0.70943,0.086102,0.8093,-0.40641,-0.14665,0.4017,0.98744,0.66689,-0.25545,0.19541,0.84689,0.98856,0.97175,-0.20334,-0.053459,0.41028,-0.080406,0.90087,-0.42333,-0.25841,-0.81687,0.31057,0.36894,0.069418
-0.4786,-0.59822,-0.51921,0.37466,0.69475,0.7234,0.031942,-0.57742,0.19156,-0.5556,-0.58055,-0.038681,0.26696,-0.43617,-0.7259,-0.63107,0.8937,-0.30856,0.80252,0.5381,0.35311,0.29619,-0.75198,-0.38127,-0.34781,-0.1697,-0.054708,-0.35505,0.83348,-0.60295,-0.2407,0.68758,-0.95806,-0.98109,0.32306,0.45029,0.37303,0.32424,0.36037,-0.10741,0.76352,-0.54554,0.67871,-0.69394,0.61206,0.91712,-0.84781,0.21137,0.84709,0.57912
0.91991,0.84838,-0.64188,0.6561,-0.75078,0.043809,-0.20016,0.53583,0.34481,0.99898,-0.6997,-0.73986,-0.28928,0.9859,0.31874,0.012962,0.91787,-0.43299,-0.74468,0.58835,0.77185,-0.89374,0.8655,-0.84222,-0.45108,-0.091477,0.63176,0.84618,-0.084073,-0.56156,0.88843,0.61939,-0.9633,0.32448,-0.40008,0.22366,0.27335,0.3382,0.14396,-0.98684,0.43774,0.69637,-0.79699,-0.2404,-0.16883,0.1152,-0.58933,-0.16383,-0.25028,0.75978
0.48079,-0.58791,0.72486,-0.24341,0.94766,0.47766,0.11058,-0.77657,0.75378,0.94498,0.82557,0.056684,-0.71917,0.95689,-0.6766,0.39106,-0.069874,-0.19137,0.030425,0.036218,-0.27544,0.92935,-0.73041,-0.94311,-0.011384,-0.2366,-0.58286,-0.5209,-0.065762,0.96091,0.99474,-0.20635,-0.70022,0.31858,0.1341,0.39171,0.4381,-0.66518,-0.91404,0.32152,0.90377,0.0037406,-0.59252,0.97676,0.55853,-0.038659,0.94406,-0.034875,0.17393,0.86827
-0.68334,-0.0036103,-0.22448,0.22321,-0.58116,0.24416,-0.9337,-0.038869,-0.86938,0.52363,-0.62775,-0.16307,0.58895,0.76758,0.46268,0.78282,0.010147,0.84904,0.28743,0.05636,-0.42687,0.91684,-0.98443,-0.49782,-0.45232,0.53258,-0.98176,-0.39269,-0.65773,-0.9517,-0.60335,-0.29739,-0.18351,0.60458,0.34006,0.04295,-0.26085,0.38847,-0.68862,-0.31226,0.96431,0.21748,-0.24344,-0.33847,-0.13863,0.62096,0.23405,-0.3391,-0.092122,-0.48563
-0.52688,-0.04297,0.15294,-0.97732,-0.90365,0.19487,-0.10052,0.088896,-0.58287,-0.50051,0.1331,0.92112,-0.70261,0.76008,0.17022,-0.98196,0.67426,-0.68067,0.55715,-0.38855,-0.26165,0.6873,-0.57959,-0.28423,0.70535,-0.49106,-0.39733,0.55829,-0.64894,-0.21171,0.98234,0.37334,-0.97346,-0.07727,0.37827,0.28571,0.25849,-0.56785,0.049351,-0.60018,-0.62267,0.12079,-0.47102,0.0392,0.60816,0.67596,-0.99881,0.1823,0.041331,0.72172
0.043753,0.99089,0.36459,-0.40733,0.76436,0.26767,0.44036,-0.048028,-0.083506,0.15124,0.032152,-0.61412,-0.44231,0.33854,-0.97133,-0.23904,-0.62703,-0.73002,0.51758,0.47856,0.0036252,-0.78598,0.77782,0.77567,-0.42785,0.37234,0.59668,-0.75581,0.66159,-0.50626,0.89695,-0.54635,-0.99682,-0.016235,-0.5743,0.28205,0.33515,0.1453,0.80747,0.68493,-0.63982,0.88456,-0.91939,-0.75943,-0.80603,-0.93129,0.5463,0.96995,-0.94698,-0.92688
-0.68092,0.84658,-0.32972,0.51238,-0.83155,-0.26868,0.78881,-0.7487,-0.60404,0.21013,0.79718,0.74454,-0.42426,0.36063,-0.252,-0.37844,-0.48013,-0.47833,-0.94039,-0.48815,0.22131,0.15309,0.39763,0.32822,-0.59692,-0.093023,-0.55125,0.12723,-0.71501,-0.88054,-0.4671,-0.68525,-0.37017,-0.17592,-0.085544,-0.96338,-0.80046,-0.42886,-0.75257,0.82904,-0.27965,-0.75921,-0.11068,0.57228,-0.25522,-0.2447,-0.85723,-0.023991,-0.27857,-0.21329
0.71034,-0.20416,0.84015,0.34438,-0.78332,0.20424,-0.032661,-0.84755,0.32098,-0.31801,0.80626,0.47434,0.49797,-0.83459,0.57949,0.59012,0.18922,0.82948,-0.70177,0.72747,0.43269,0.52743,0.50326,0.39193,0.084323,0.68308,0.65869,0.77633,0.64138,-0.44255,-0.78991,-0.45334,-0.52292,-0.56479,0.18158,0.44917,-0.5617,0.64562,-0.34848,0.004987,0.18048,0.44023,0.3038,0.67491,-0.45157,0.51317,0.51745,-0.71232,0.79158,0.57759
0.43778,-0.13876,0.47254,0.98221,-0.55446,-0.23881,-0.27561,0.66415,-0.21995,-0.61505,0.84598,0.14731,-0.76292,0.23718,-0.20708,-0.75495,-0.052571,0.15824,-0.91546,0.63738,-0.96781,0.4919,-0.56884,-0.31018,-0.59095,0.13719,-0.52781,0.7203,0.35444,-0.82294,-0.21687,-0.39198,-0.28161,0.70393,-0.94969,-0.30621,-0.67631,-0.94134,-0.82826,0.031931,0.84938,0.85258,0.84292,-0.57828,0.67955,0.12176,-0.13492,-0.4308,0.11006,0.79447
0.19861,-0.76991,-0.27335,-0.0092368,0.68516,-0.64136,0.46458,0.46146,0.12621,0.84766,-0.83857,0.56648,0.95768,-0.70462,-0.10796,-0.71417,0.66141,-0.91101,0.98556,0.12898,-0.063898,-0.31977,0.63697,0.53427,-0.97766,-0.51628,0.48923,-0.62296,-0.42559,-0.93592,0.33996,0.72326,0.50939,0.53545,-0.73439,0.46959,-0.59782,-0.14188,-0.30597,0.17463,-0.99449,-0.097734,-0.33854,0.41244,0.21872,-0.3692,0.82956,0.64886,0.91613,0.19211
-0.24568,0.84578,-0.66378,0.98366,-0.46994,-0.3551,0.23791,-0.039361,0.07756,-0.39995,0.60668,0.66064,-0.061616,0.83182,-0.29728,0.79693,-0.88915,-0.51222,-0.67057,0.39628,-0.94788,-0.14251,0.7855,-0.61717,-0.24512,-0.86091,-0.92715,0.38268,0.5267,0.85588,-0.23729,-0.60248,0.81535,0.52222,0.089774,-0.23315,0.71049,0.77986,-0.79738,-0.18082,0.84974,0.5538,0.28151,-0.11867,0.90529,0.48139,0.15286,0.71576,-0.83904,0.25587
0.055276,0.23333,0.04738,-0.63046,-0.9946,-0.52349,0.85289,-0.86618,0.23556,0.88334,-0.96071,0.27787,-0.296,0.60851,0.84119,0.35464,-0.23061,0.46727,-0.93622,0.9334,-0.4825,-0.42331,-0.99019,-0.8369,0.68062,0.79419,-0.57727,-0.7123,0.3221,-0.72411,0.52022,-0.94133,-0.49475,-0.50569,0.32208,-0.16786,0.11319,-0.060442,0.24743,0.64207,-0.64869,-0.52028,0.41026,-0.42403,0.29583,-0.056125,-0.3195,-0.43445,-0.17891,-0.24484
-0.42476,-0.35066,-0.58007,0.62679,0.58614,0.99914,-0.27521,0.1055,-0.6443,-0.52529,0.80575,0.044006,-0.82757,-0.99016,0.4242,-0.27652,-0.78801,0.0032873,0.096522,-0.67901,0.28499,0.001201,-0.76083,-0.91153,0.38737,-0.75262,-0.45142,0.16141,-0.87528,0.48489,-0.12786,-0.76927,0.04507,0.1845,0.96948,-0.42225,-0.12495,-0.58506,0.96713,0.35719,-0.93638,-0.39666,0.97121,0.12821,-0.78253,0.19273,0.18276,-0.11152,-0.13659,-0.64084
0.73914,0.11202,-0.10534,-0.56033,-0.8979,0.50493,0.6852,-0.015844,-0.34421,-0.48521,0.7111,0.19082,-0.98036,0.48705,0.20056,0.58036,0.89772,0.46731,-0.36044,0.3409,0.05766,0.38772,-0.28128,-0.96809,-0.99401,0.08573,-0.68372,0.0072061,0.89562,0.34361,0.15126,-0.54675,-0.25862,-0.047833,-0.4708,-0.24677,-0.11104,-0.29385,0.295,0.74837,-0.084098,0.86155,0.01611,0.17367,0.25605,0.25397,0.96534,-0.13357,-0.13701,0.48201
0.025701,-0.53657,0.32756,0.48514,0.22037,0.45404,0.037428,0.99332,-0.95176,-0.49946,-0.63932,-0.37273,0.0069617,-0.99196,0.72643,-0.53165,0.52585,-0.91521,0.75345,0.31954,-0.73299,-0.72958,0.78336,-0.97351,-0.45499,-0.92016,0.44147,-0.77911,0.93749,0.8518,-0.37242,0.85349,0.78976,0.13408,-0.80297,0.33218,-0.7264,0.7016,0.44587,0.86241,0.86255,-0.068458,-0.41966,0.021595,0.16231,-0.059545,-0.85045,-0.58262,0.2312,0.55418
-0.75683,-0.67846,0.93556,-0.98704,-0.7954,-0.63154,0.74446,-0.21258,0.88887,-0.66585,-0.18671,0.71659,-0.097258,0.71914,0.48464,-0.24657,0.050654,-0.19701,-0.60975,-0.48431,0.66709,0.26482,0.37873,-0.25444,-0.2768,0.15873,0.039594,-0.05121,-0.52227,-0.58136,0.071166,-0.24429,0.73907,-0.17015,0.69564,0.88184,-0.69455,-0.73527,-0.4073,0.63803,-0.65261,-0.53691,-0.626,0.36441,-0.73603,-0.10173,-0.021473,0.84235,-0.056444,0.10923
-0.72682,-0.85522,-0.97543,-0.50013,-0.50685,0.74886,-0.04146,0.40075,0.35394,-0.87794,-0.882,-0.50503,0.89423,-0.21268,-0.0058789,0.6026,0.50035,-0.30623,-0.41647,0.063876,0.63252,0.35258,-0.6158,0.54986,-0.15251,0.30771,0.85621,0.2912,-0.47029,0.057466,0.64657,0.7198,-0.17091,-0.35456,-0.95641,-0.90859,0.54481,0.42409,-0.040337,0.80628,-0.31635,-0.83771,0.57608,-0.047768,0.44635,0.49871,-0.68367,-0.74054,-0.48271,0.69497
0.54703,0.8849,0.67218,-0.14577,-0.20331,0.45059,-0.28661,-0.2859,-0.3894,0.69731,-0.81138,0.18554,-0.87004,-0.95689,-0.23848,-0.9901,-0.078009,-0.39167,0.22162,0.49261,-0.10623,-0.27147,-0.44151,-0.32213,0.41915,-0.64572,0.011984,-0.37921,0.24807,-0.59424,-0.73708,-0.93549,0.35462,-0.38755,0.83903,-0.76952,0.95687,0.74606,-0.98835,-0.34954,-0.069688,-0.10119,-0.1269,0.71598,-0.039716,0.48638,0.52393,0.068147,-0.082875,0.10905
0.92489,0.25773,0.3541,0.62511,0.62147,-0.2015,-0.88153,0.9917,-0.40448,-0.36066,0.07123,-0.41384,-0.92331,-0.49967,0.74087,-0.45029,-0.98357,0.5033,-0.68278,0.73025,0.68751,0.23563,0.73131,0.4459,-0.23919,-9.0812e-05,0.71672,-0.36994,-0.52892,-0.86357,0.31564,-0.44131,0.32371,0.18561,-0.030279,-0.37899,-0.14261,-0.75945,-0.037353,-0.65939,0.66365,-0.09422,-0.88721,-0.36158,-0.091179,-0.8063,0.87162,0.20146,-0.37644,0.57757
0.32121,-0.25051,0.59327,0.67626,0.42629,-0.34675,-0.7585,-0.5309,-0.85676,-0.72465,0.43022,-0.42976,-0.44271,0.22797,0.51172,0.80686,0.13636,0.75695,0.11812,0.67622,-0.81692,0.0095943,-0.361,-0.49901,0.79584,-0.98821,0.37511,-0.71005,0.53737,0.63643,0.51634,-0.24648,0.4722,-0.11813,-0.56961,-0.6194,0.003904,0.92734,0.83292,-0.57619,-0.67537,0.76184,0.83602,-0.073754,-0.12927,-0.029634,-0.85251,-0.34706,0.12992,-0.47973
-0.16441,0.54811,-0.047687,-0.72495,0.51599,-0.29065,0.63442,-0.81146,0.50554,-0.83238,-0.58024,-0.81042,0.045952,-0.72443,-0.37905,0.79217,-0.18964,-0.18838,-0.33264,0.09745,-0.13625,0.36628,0.51504,0.16371,0.26523,0.34051,-0.56105,0.61768,-0.71703,-0.097748,0.053081,-0.29524,-0.18997,0.19947,-0.03128,-0.81607,0.99608,-0.74377,0.45171,0.39385,0.90003,0.93409,-0.79347,-0.38153,-0.87953,0.83206,-0.99975,0.52037,0.63351,0.43767
-0.52136,-0.86419,0.5812,-0.38315,0.91524,-0.65612,0.21783,0.52849,0.063198,0.96178,0.072337,-0.55086,-0.72091,-0.10973,0.33289,-0.80726,-0.8073,-0.31013,-0.7089,0.88854,0.6625,-0.14384,-0.59931,0.85351,0.87651,0.12595,0.39694,-0.25323,0.96275,0.62511,-0.63025,-0.76423,0.11456,-0.15031,-0.80084,-0.89278,-0.20402,-0.41419,0.081054,0.14666,-0.38696,-0.27326,0.32636,0.23591,-0.65339,0.18398,0.77595,0.099721,0.81678,0.045371
0.69724,0.87523,0.30413,0.94885,0.51088,0.49623,0.84501,0.71127,-0.38292,-0.85593,0.37513,0.90869,-0.63786,0.57837,0.15462,-0.82022,0.099631,-0.40481,0.36642,0.99601,-0.95051,0.055042,0.80635,0.0988,0.31651,0.94773,0.049396,0.19868,-0.045037,-0.11833,-0.89537,0.31829,-0.24821,0.24814,-0.85324,-0.1089,0.42883,0.64881,0.84516,-0.89547,0.24685,0.9672,-0.55389,0.53394,0.050925,0.23469,-0.27689,0.31974,0.29681,0.36696
-0.4296,0.79771,0.093318,0.38187,0.91524,0.54352,0.34236,-0.21297,-0.18632,0.9652,0.85393,-0.83835,-0.87663,0.64822,0.74969,-0.78324,-0.28877,0.42804,-0.54798,0.41936,-0.99676,-0.23929,-0.32166,0.68982,0.021364,-0.78431,0.42377,-0.71739,-0.11316,-0.33478,-0.15253,0.25893,0.42045,-0.6317,-0.40235,-0.13962,0.16772,0.68709,0.93028,-0.54573,-0.535,-0.83206,0.030793,0.62045,0.87364,0.038759,0.52388,-0.34538,0.89184,-0.051554
0.34082,-0.050196,0.03212,0.58396,-0.44781,-0.042185,-0.95789,-0.59836,-0.092412,-0.76439,0.76475,-0.87671,0.16544,-0.10564,0.5185,0.94267,-0.41399,-0.49801,0.42266,0.062462,-0.30725,-0.89702,0.23533,0.77953,0.8253,-0.8869,-0.6248,0.57848,-0.51219,0.90812,-0.43383,0.12134,-0.28763,-0.31639,-0.29075,-0.98251,0.86713,0.56856,-0.91666,0.73509,-0.85363,-0.83211,-0.69459,0.4664,-0.19305,-0.22525,0.14323,0.11925,-0.69796,0.29917
0.68701,-0.82635,-0.76737,0.1555,0.34784,0.66002,0.13656,-0.52538,0.80752,-0.47996,0.28914,0.89208,-0.86948,0.73967,-0.40356,0.0057278,-0.24219,-0.11707,-0.22604,0.56009,-0.59314,0.98858,0.90008,0.79602,-0.33,0.24829,0.14544,0.29967,0.52355,0.94242,-0.40022,0.35029,0.45288,0.35548,-0.77184,0.60665,0.36536,0.20619,0.48691,-0.28825,0.86783,0.89755,-0.50948,0.78635,0.13626,-0.89566,-0.31178,-0.63073,0.058807,0.027266
0.16822,0.45209,0.0071137,0.5837,0.74373,0.13266,0.65902,-0.99637,-0.46269,0.21994,0.68658,0.41401,-0.22403,-0.58768,-0.092395,0.84517,0.12505,0.30997,-0.39439,-0.974,0.67619,0.24868,-0.15245,0.069426,0.15998,-0.94987,0.0021902,0.50599,0.38846,-0.15808,-0.10078,-0.42188,-0.4689,0.79375,0.057805,-0.49582,0.85839,0.2052,0.64669,0.38939,-0.4513,0.41278,-0.6455,-0.99326,-0.62518,-0.40806,0.11645,0.39385,-0.63367,0.39807
-0.86595,-0.87599,-0.39513,0.25958,-0.86294,0.85616,-0.61031,-0.10404,-0.36089,-0.4328,-0.089393,-0.54221,0.38572,-0.71798,-0.48199,-0.27554,0.49666,-0.090781,-0.54934,-0.83128,-0.50011,-0.30579,-0.82811,0.62873,-0.29187,0.077122,0.72198,0.63801,0.023216,0.98735,-0.42104,-0.7204,-0.53906,-0.0066373,0.032004,-0.86077,-0.59894,-0.40677,-0.76308,0.049327,-0.76585,0.34222,-0.8518,-0.28079,0.18374,0.21824,-0.61601,-0.58767,-0.77716,0.21738
0.011276,-0.75219,-0.10697,0.8372,0.018541,-0.21799,-0.54953,-0.83204,0.29669,-0.40713,-0.39213,-0.83433,0.94183,-0.77562,0.99594,-0.9548,0.26654,-0.6229,-0.25977,0.3862,0.42433,0.59214,-0.49411,0.71436,0.41492,0.057017,0.84487,0.56691,-0.15922,-0.2371,0.39412,-0.37511,0.98271,-0.63935,-0.74715,0.8579,0.89208,0.85375,0.23034,-0.39848,-0.42926,-0.042081,0.59909,0.85892,0.63585,0.94319,0.98512,-0.40881,-0.95702,-0.84822
0.023175,-0.68793,0.84048,0.34462,-0.53824,-0.27091,0.082263,0.8341,0.57904,0.65577,-0.54841,0.66697,-0.25893,0.22309,-0.7857,0.67631,0.61393,0.24342,-0.090159,0.60144,-0.66759,-0.0031623,0.50688,0.036603,0.43928,-0.070728,-0.7175,0.12954,-0.86622,0.73211,0.91469,-0.79857,0.50765,-0.74428,0.61736,0.55277,-0.14152,0.70551,-0.78145,-0.11379,-0.95916,-0.71957,-0.21141,0.012213,-0.14683,-0.47176,-0.60145,0.33381,0.42972,0.70837
-0.70407,-0.1024,0.89304,0.74414,0.59486,-0.79042,-0.77226,-0.12161,0.77137,0.2822,0.40191,-0.51034,0.87274,-0.2769,-0.21164,0.69007,-0.1509,-0.066036,0.56202,0.2027,-0.4904,-0.36041,0.60325,0.39102,0.49743,0.04329,0.74602,0.71847,0.84211,-0.68643,0.44779,-0.30058,0.57632,0.30366,0.39517,-0.087034,-0.57192,0.52603,0.34218,0.2066,0.061818,0.45866,-0.70601,-0.49783,-0.56524,-0.17602,-0.54078,-0.56872,0.46369,-0.17005
0.49306,-0.79061,0.1865,0.8455,-0.3175,-0.76082,0.35653,-0.24448,-0.92783,-0.61774,0.37167,-0.80469,0.80519,0.28595,0.40937,0.30713,-0.23786,-0.30265,-0.94001,0.10152,-0.9139,0.69144,-0.019536,-0.11154,0.20898,0.17985,0.52502,0.099569,-0.3743,-0.30059,-0.73819,-0.0053258,-0.596,0.79171,-0.74114,0.33835,-0.4014,-0.98846,0.054879,-0.063555,-0.50316,-0.9778,0.73831,-0.68494,0.90664,0.098904,-0.35151,0.98963,-0.6724,-0.50405
0.85069,0.65011,-0.32142,-0.62288,-0.93793,-0.48525,-0.75267,0.37439,0.40468,0.15928,-0.95084,-0.62225,-0.47383,-0.93507,-0.53268,0.17269,0.070366,0.40931,0.66372,0.48673,0.86563,0.51819,-0.35214,0.90083,-0.70638,0.99395,-0.58979,0.74833,0.99152,-0.17258,-0.053419,-0.34231,0.47044,0.71268,-0.17436,-0.38859,-0.83553,-0.99495,0.67655,-0.081336,0.9631,0.66541,-0.7573,-0.616,-0.11627,0.54251,-0.81865,0.6452,0.13441,-0.67722
-0.69519,0.74779,0.59977,0.79745,0.76111,-0.36547,-0.61864,0.30703,0.4328,0.67629,0.31127,0.47715,0.2023,0.14298,0.32161,0.53329,0.75712,-0.79357,0.51682,0.78272,-0.79371,0.3615,-0.0020478,-0.29951,-0.30239,0.76494,-0.99716,0.49614,0.26356,0.43616,0.16644,0.90275,0.25686,-0.28649,0.374,0.20502,-0.52269,0.73635,-0.59606,0.15748,-0.574,0.78365,0.84377,-0.62252,-0.65764,-0.073779,-0.73829,0.87371,0.65442,0.58345
-0.28589,0.36869,0.016496,0.35001,0.49253,-0.12557,-0.17012,-0.47017,-0.78523,-0.69883,0.75355,0.18305,0.16374,0.60685,-0.92872,0.56498,-0.90013,-0.61984,-0.65805,-0.79144,0.84628,-0.21288,-0.18981,0.96618,-0.95073,-0.68161,0.89277,0.61528,-0.35262,0.12679,0.087013,-0.94133,0.90665,0.69238,-0.022801,0.33714,-0.39929,-0.83719,-0.21369,-0.1467,-0.50411,-0.71105,0.085518,-0.31506,0.16231,-0.29832,-0.18313,-0.53391,0.65876,0.015049
-0.42844,0.58431,-0.52439,0.37397,-0.20938,-0.52083,0.58768,0.1356,-0.53069,0.55937,0.85382,0.48862,0.73426,-0.14911,0.82775,0.95361,-0.2965,-0.65681,-0.18099,-0.83757,0.60303,0.15861,0.10052,0.14093,-0.35231,-0.16685,0.50957,-0.05212,-0.67839,-0.29984,-0.85231,0.49901,0.085437,0.78752,0.25345,0.91446,0.061797,0.47914,0.36403,-0.52916,-0.44762,-0.78221,-0.9482,-0.40584,0.2961,0.64467,0.20824,0.20445,-0.32365,-0.46141
0.10915,-0.64997,0.51011,0.30889,0.95698,0.71175,0.81704,0.33078,0.11356,0.34994,0.53071,0.27155,-0.1152,0.65304,0.61588,-0.24343,-0.20235,0.77316,0.83208,0.45614,0.45545,0.74046,-0.59573,-0.28186,0.071913,0.31282,0.80206,0.99143,0.61417,-0.41782,0.18638,0.98175,-0.59072,-0.83771,0.57981,0.76268,-0.78584,0.39659,0.85361,0.78342,0.56619,-0.94338,-0.85542,0.85658,-0.33901,0.63831,0.4087,0.75631,0.93659,-0.39414
-0.18539,0.12061,0.89171,0.13069,0.5752,-0.39742,-0.21976,0.47843,-0.27865,-0.18041,-0.51742,0.81434,0.82148,-0.31031,0.80367,-0.73767,-0.28271,-0.7764,0.35351,-0.063467,-0.30133,-0.38224,0.20987,-0.44751,-0.88438,0.013219,-0.96441,-0.90328,0.76432,-0.03089,0.14556,0.35536,0.5232,0.43682,0.88748,-0.94164,-0.061063,-0.58693,-0.25508,0.97373,-0.17889,-0.53609,-0.7505,-0.21879,0.38738,-0.38051,-0.18527,-0.52636,0.79624,0.74948
0.83688,-0.69311,0.58748,0.74639,-0.43836,-0.57843,-0.93141,-0.94812,0.013496,-0.048607,0.996,-0.96223,-0.591,-0.84823,-0.95496,-0.77564,-0.17663,0.04367,-0.93392,-0.6381,0.70969,0.20119,-0.92131,-0.36954,-0.10466,-0.9372,0.05099,-0.34126,0.18003,0.72205,0.50604,0.89367,0.50908,-0.44051,0.60376,0.38593,0.26172,0.44298,0.7628,-0.21601,0.023745,0.72793,0.30908,0.27674,-0.13499,0.76753,-0.20621,-0.71407,-0.72868,-0.19332
-0.17749,0.34552,0.47634,0.3504,-0.94776,0.76385,0.77771,-0.070387,-0.78874,0.19185,-0.36466,0.49526,-0.0047906,-0.089301,0.79137,0.96134,0.21952,-0.0055411,-0.86344,-0.80415,0.11639,0.76819,0.1289,0.80919,-0.69554,0.78287,0.66366,0.40427,-0.62086,0.78044,-0.83527,0.20909,-0.88644,0.9083,-0.73405,-0.49439,0.71579,-0.17248,-0.6866,0.74518,0.013152,-0.40065,0.18659,0.83706,0.086553,-0.89823,0.4472,0.39648,-0.63971,0.76372
-0.33415,0.99217,0.75538,0.22029,0.82967,-0.12035,0.6355,-0.73322,-0.30823,0.77861,0.078249,-0.83918,-0.89909,-0.86261,0.72982,-0.80673,0.54401,0.67596,0.085173,0.43539,0.68478,0.90871,0.88859,0.64552,0.4372,0.22307,0.30973,0.63992,-0.52429,0.067195,-0.29542,0.53897,-0.35189,-0.067067,0.73666,-0.9141,0.49446,-0.17379,0.11398,-0.70014,-0.86783,0.74852,-0.42648,-0.37689,0.24748,0.48165,-0.7431,0.68238,-0.6074,-0.46868
0.42431,-0.95492,0.1846,0.67953,0.25583,0.16346,0.40729,0.49824,0.2067,0.067746,0.96977,-0.64246,0.45321,-0.1852,-0.25338,0.20455,-0.21943,0.064398,0.23572,0.4402,0.67992,0.78682,-0.11496,0.68711,0.40658,-0.21213,0.85861,0.15856,0.082358,0.92502,-0.84361,0.30655,0.1245,0.88574,0.039853,-0.40854,-0.67311,0.69498,0.90295,-0.12612,0.513,0.31525,-0.76603,0.14639,-0.062802,-0.09599,-0.61884,-0.27743,-0.16303,-0.10358
-0.33782,-0.35641,0.063961,0.88206,-0.12558,0.87102,0.97209,0.51642,0.3444,-0.7677,-0.53747,0.54155,0.56861,0.83945,-0.051047,0.65628,0.018895,-0.55092,-0.20321,-0.79224,-0.26423,-0.41756,0.52653,-0.13601,0.29466,-0.13341,-0.24208,0.96677,0.78097,0.81294,0.76404,-0.43086,-0.44115,-0.14644,-0.70594,-0.81366,-0.93134,-0.52638,-0.92689,-0.40336,0.096627,0.10734,-0.031716,-0.28947,0.1678,0.54151,0.17932,-0.89972,0.26054,-0.50591
0.083143,-0.10713,-0.64415,-0.68122,-0.93713,-0.6648,0.55899,-0.50546,-0.10077,-0.97293,-0.33504,0.91236,-0.65313,-0.22861,0.44126,-0.88795,-0.92422,-0.94922,-0.065747,-0.65556,0.37394,0.05356,-0.14386,-0.46901,-0.92685,0.31802,-0.41118,0.64228,0.21692,-0.25203,-0.70893,0.26046,0.20698,0.5398,-0.98917,0.39588,-0.30729,-0.61153,-0.17234,0.75378,0.87051,0.81792,0.81704,-0.74967,-0.795,0.41751,-0.77052,-0.25266,0.74672,-0.87916
-0.5464,0.32535,-0.023228,-0.92242,-0.79225,0.8464,0.89836,0.92599,0.10706,-0.10363,-0.87294,-0.096898,0.47376,-0.91252,-0.70816,-0.59905,0.1676,0.066438,-0.086035,-0.49847,0.78851,-0.46968,0.16477,0.54224,0.74166,-0.32649,0.6193,-0.1816,-0.65697,-0.67954,0.67131,0.3742,-0.74789,0.45359,-0.3246,-0.41906,0.6251,0.41844,0.049173,-0.31846,0.41621,0.0033307,-0.82917,0.96512,-0.099768,0.47441,0.87401,-0.83822,-0.50429,-0.43647
0.3787,0.68966,-0.30633,-0.0055518,0.66758,-0.65829,-0.97655,-0.50444,-0.032432,0.75763,0.60526,0.27584,-0.39636,0.32835,-0.17847,0.19863,-0.55412,0.27302,0.82803,0.51278,0.72154,0.68068,-0.82905,0.25716,-0.084913,-0.36794,0.82688,0.51947,-0.11229,0.91443,-0.3721,-0.61957,-0.31912,0.13329,0.85464,-0.89649,0.93985,0.62443,-0.68996,-0.12449,-0.89014,0.9334,-0.84276,-0.24623,-0.48835,0.6815,-0.38095,-0.26387,-0.70388,0.91599
-0.79479,-0.44025,0.34086,0.254,-0.076223,0.87472,-0.79478,0.76779,-0.96061,0.75614,0.077937,0.70271,-0.36216,-0.032283,0.4757,0.36219,-0.39212,-0.039275,-0.66686,-0.72929,0.45144,0.19814,-0.66536,-0.57906,0.56198,-0.9054,0.58524,0.0062109,0.66347,0.19064,-0.10516,-0.32082,0.1243,0.37168,0.41072,-0.91441,-0.0010677,0.40331,-0.68068,-0.26973,0.47335,-0.13665,-0.83437,-0.91318,-0.69998,0.67127,0.72571,0.31314,-0.94101,-0.33709
-0.27552,0.20987,0.15168,0.98845,0.38779,-0.51995,-0.55667,-0.053925,-0.47817,-0.8969,-0.56062,-0.60873,0.71773,0.54389,-0.062686,0.45202,0.99264,0.23412,0.48351,-0.77852,0.80633,0.69941,0.10364,-0.077443,0.53778,-0.35572,0.31367,-0.098567,0.67028,-0.28911,0.36667,0.95144,-0.3462,-0.31282,-0.42998,0.96683,-0.21449,-0.23921,0.86911,-0.98066,-0.93829,-0.3669,-0.094359,-0.68971,-0.37527,-0.9181,-0.81264,-0.36299,-0.68015,0.66177
-0.93307,-0.36558,0.22671,-0.36529,0.62729,-0.0097885,-0.59309,-0.2838,-0.37669,0.54397,0.93294,0.25585,-0.60169,-0.30467,0.33361,-0.24419,0.85968,0.30645,0.13999,0.048493,0.80391,-0.23043,-0.7742,0.49196,0.14148,-0.46126,0.029914,-0.596,0.37135,-0.77101,0.7393,-0.73355,0.027959,0.33053,-0.79284,-0.90316,0.011749,-0.66898,0.29872,-0.69846,-0.46533,-0.8073,0.093263,-0.27739,-0.38351,0.6757,0.79948,0.2905,-0.474,-0.56338
0.88397,-0.69029,-0.49862,-0.053101,-0.39944,0.70009,0.42294,-0.85936,0.84346,0.67444,-0.63527,0.86023,0.95253,0.54831,0.044461,0.76913,-0.46417,0.099657,-0.37458,0.60648,0.32084,0.28418,0.51036,0.51356,0.12392,0.16048,0.49075,-0.94059,0.71548,0.91368,-0.43092,0.60539,0.048454,-0.35668,-0.32841,-0.11378,0.43297,-0.50068,-0.76659,-0.23614,0.43947,0.5955,-0.66205,0.84858,0.80034,-0.86712,-0.79811,0.40085,0.28543,0.099382
-0.11931,0.62035,0.24977,0.66373,-0.3865,-0.36874,0.54152,-0.29145,-0.4492,0.50872,0.51476,-0.61372,0.85032,0.16111,-0.76206,-0.7101,-0.70289,0.22513,-0.86092,0.18608,0.74013,-0.12885,0.79361,0.10934,-0.98318,-0.51991,-0.89575,-0.35825,0.25168,-0.98646,-0.54056,0.61482,0.39367,-0.80565,0.15488,0.14074,0.8503,0.8062,0.30468,0.69478,-0.72038,0.69107,-0.87121,-0.41321,-0.38791,0.90261,0.20208,0.83256,-0.99686,0.28384
-0.63707,-0.55071,0.0062931,-0.18226,0.16281,-0.89171,-0.75627,0.18794,0.50362,-0.16625,0.77737,-0.70666,-0.6797,0.27744,0.77476,0.47353,-0.70359,0.16688,0.77212,-0.53052,0.87095,-0.7175,-0.64408,0.6563,0.98195,-0.98317,-0.85097,-0.56181,-0.26707,0.29674,0.078301,0.74889,-0.63398,-0.87595,0.54205,0.23006,-0.87298,-0.10518,-0.074771,0.068371,0.95348,0.23627,-0.54201,0.32947,0.40763,-0.21687,0.39697,0.092733,0.087945,-0.58713
0.73411,-0.80158,0.17001,-0.039323,0.44036,0.23097,0.071348,-0.29223,0.32655,-0.59786,-0.16794,-0.68442,0.39278,0.67744,0.89642,0.097134,-0.73319,0.65804,0.54777,0.040343,0.023044,0.12824,-0.094099,-0.61826,-0.29658,-0.74987,-0.46922,0.8491,-0.43195,-0.61754,-0.24021,0.24212,-0.70265,-0.09572,0.062712,-0.31135,-0.25209,-0.26472,0.56388,0.60656,0.45946,-0.82446,-0.82076,-0.43932,-0.69523,0.39915,0.9885,-0.1818,-0.24709,0.77237
0.16329,0.61703,0.54215,-0.18059,-0.91345,0.14827,0.56172,0.30137,-0.0453,-0.27072,0.67946,0.10528,-0.41688,0.12871,-0.83786,-0.28239,-0.82304,0.041681,0.68949,0.054194,-0.64134,0.44911,0.099159,-0.059918,0.52674,-0.0048007,0.72327,0.56874,0.80583,0.46036,-0.7984,0.87254,0.43103,0.27332,0.13961,0.82026,0.44045,0.56294,-0.47741,-0.64598,0.4841,-0.46273,-0.42095,-0.76881,-0.84129,-0.25755,-0.62421,-0.47414,-0.93654,-0.31632
-0.89505,-0.95743,0.28112,0.77175,-0.53156,-0.63717,-0.26268,0.090702,-0.32331,-0.326,0.032003,0.85233,0.97349,0.68358,-0.95793,-0.46627,0.44229,0.32463,-0.39452,-0.48085,0.39058,-0.54078,-0.71231,0.94785,-0.54395,0.42041,0.1674,-0.24063,0.44711,-0.17217,0.7344,-0.54673,0.1758,-0.93722,-0.98076,-0.63915,-0.15615,0.091195,-0.053169,0.42494,0.076075,-0.57144,-0.49993,0.71349,0.29301,-0.25143,0.081889,-0.70746,0.73247,0.61749
0.7742,0.47623,0.34522,0.79188,0.014253,-0.6542,-0.43939,-0.55318,-0.93471,0.9097,-0.42726,-0.68915,-0.60921,0.096202,0.34742,0.74847,0.72255,0.45182,-0.59646,0.56937,0.54488,-0.91142,0.81785,0.051479,-0.1568,0.45822,0.79541,-0.50224,-0.5891,-0.44299,-0.15088,-0.1447,-0.71556,-0.27981,-0.72308,-0.39158,-0.25631,-0.17486,-0.53673,0.36259,0.57925,-0.37003,0.76689,-0.48558,0.47205,0.063236,-0.37297,0.99743,0.87534,-0.92083
-0.88029,-0.10312,-0.9661,-0.57271,-0.52032,0.75374,-0.90789,-0.52323,0.17467,-0.8735,0.7251,-0.64815,-0.23774,0.087678,0.96149,0.42951,0.12781,-0.80646,-0.82898,0.39937,-0.78363,-0.49885,0.71607,-0.33762,0.054141,0.5563,-0.25661,-0.37785,-0.59426,-0.68074,-0.71897,0.66146,0.11408,-0.64974,0.0090472,0.45887,-0.68014,-0.098552,-0.7046,-0.49252,0.81735,-0.42822,-0.53173,-0.66565,-0.41145,0.98058,-0.80673,-0.63524,0.099359,0.2956
0.81728,0.53221,0.79485,0.043552,-0.15226,0.30063,0.26398,-0.36077,-0.89051,0.66492,-0.56736,0.76097,0.62335,0.84144,0.71008,-0.49706,-0.1442,-0.94405,0.17113,-0.10108,-0.95662,-0.90822,-0.42567,-0.48669,-0.56429,0.73391,-0.31002,0.79875,-0.71426,-0.25887,-0.16788,-0.51425,-0.42634,-0.57094,0.48281,-0.8485,0.2756,0.49443,-0.54723,0.45182,0.95284,-0.11396,-0.050996,0.033796,0.60424,-0.44895,-0.20979,0.93701,-0.69518,-0.90504
0.059809,0.68415,0.74967,0.40421,0.99137,0.038298,0.46535,0.20863,-0.53602,-0.093713,0.80809,-0.77768,-0.33166,-0.86299,-0.50249,-0.098215,0.59729,0.0027091,-0.33102,0.13374,-0.173,0.34957,-0.47909,0.92969,-0.29427,0.62828,-0.18649,0.71179,-0.1977,-0.84013,-0.12842,0.65981,0.37625,0.65856,-0.97704,-0.83381,-0.36369,-0.96371,0.8854,-0.67494,0.24805,0.90759,-0.41594,-0.48373,0.31968,0.69736,0.28911,0.78286,0.21465,0.76018
-0.1634,0.3248,-0.38244,0.64925,0.89798,0.37815,-0.90776,0.17413,-0.021073,-0.69678,-0.81508,0.054487,-0.25084,-0.73281,-0.33019,-0.92798,0.36043,-0.2059,0.3224,-0.67268,0.23173,0.7254,-0.34415,0.4045,0.10551,-0.56333,-0.057305,-0.19258,-0.83506,-0.70664,-0.59806,-0.44892,0.29745,-0.062475,0.80503,0.45553,-0.34301,0.062126,-0.70692,-0.49397,0.36316,-0.23758,0.47543,0.33924,-0.042082,-0.91427,-0.18376,0.074284,0.64619,-0.93365
-0.20795,0.16334,-0.12719,-0.69509,0.43411,0.31142,-0.81386,-0.08766,0.60727,0.42069,0.81445,-0.15107,-0.03642,-0.51456,0.058195,-0.59638,-0.57368,-0.025899,-0.77456,-0.16735,0.40357,-0.92952,0.48788,0.31755,0.27708,-0.49735,0.8981,0.21533,0.43304,0.64428,-0.86406,-0.2328,-0.76646,0.046456,0.21698,-0.53306,-0.74762,-0.19794,0.014982,-0.31424,-0.35397,-0.87715,0.3485,-0.69979,0.18219,0.0023328,-0.32953,0.83705,0.71207,-0.81485
0.83991,0.1871,0.83253,0.010221,-0.055508,0.43575,0.2418,-0.46672,-0.75795,0.53513,0.17658,-0.68735,-0.9808,0.82843,-0.078019,0.10197,-0.27174,-0.064777,-0.56184,-0.087167,0.93222,0.58368,-0.7025,-0.14799,-0.12085,-0.013009,0.87352,-0.044306,0.28852,-0.067008,0.95453,-0.1226,-0.30953,0.87337,0.11481,-0.19712,-0.47661,-0.51062,0.041092,0.90636,-0.090418,0.82153,-0.38239,-0.067887,0.18567,0.67265,-0.46141,0.086992,-0.32155,0.32858
0.591,-0.35157,0.184,0.050032,0.59457,0.56683,-0.063928,-0.4602,0.25919,0.93903,-0.38233,-0.21876,0.23494,-0.068975,0.23717,-0.92317,0.66598,-0.1547,0.19462,0.9896,0.40773,0.93593,0.42198,0.76042,-0.62073,-0.54717,-0.43914,0.69774,0.50855,0.82947,0.48932,-0.72066,-0.1673,0.38755,0.87593,0.82059,0.83894,-0.68167,0.052443,-0.23787,0.59526,0.083583,-0.33598,-0.64739,0.28909,0.056271,-0.39491,0.95506,0.086145,0.34532
0.59496,-0.54525,-0.39792,-0.12475,-0.93215,0.32722,-0.12302,0.9859,0.10641,0.94851,0.011063,-0.46742,0.70411,-0.0022322,0.35493,0.7456,0.81535,0.74635,-0.28903,0.55062,-0.19306,0.70732,-0.84663,0.2517,-0.24637,-0.48192,0.61753,0.5665,-0.60838,-0.64942,0.09703,-0.38266,0.78776,0.16404,0.026511,-0.88821,-0.45077,-0.075684,-0.1822,0.72416,0.56708,-0.43414,-0.75756,0.70192,0.025861,0.8086,0.6255,0.33335,0.83084,0.95637
-0.49144,-0.29938,0.87913,0.21746,0.11069,-0.82008,0.74983,0.29175,0.76526,-0.98636,0.88317,-0.47924,-0.19238,-0.92404,-0.58404,0.061448,0.34689,0.4808,-0.11186,-0.414,0.91602,0.93065,0.70804,0.072305,-0.19571,-0.52434,-0.19638,-0.23909,-0.47107,0.56428,0.82064,0.54481,-0.40428,0.97752,0.63243,-0.52449,0.44672,0.47652,-0.68472,0.15843,0.17683,0.048932,0.62737,0.70119,0.63695,-0.42676,0.9093,0.33694,-0.55191,-0.8823
0.42796,-0.28912,0.81231,0.072687,0.72899,-0.24509,-0.34469,-0.039637,0.98062,0.50223,0.85164,-0.62732,-0.10539,0.76157,0.033729,0.97731,0.97564,0.77538,0.99717,-0.6531,-0.44545,-0.46973,0.17962,0.44015,-0.46783,-0.8345,0.84033,-0.34314,-0.87155,-0.90125,-0.64041,-0.93093,0.089135,0.59397,0.29121,-0.76645,0.67142,0.84866,0.34116,0.059325,0.60583,0.93094,-0.10806,0.98052,-0.9637,-0.53483,-0.21248,-0.25452,0.88943,0.22853
-0.24443,-0.79842,0.09216,-0.90272,-0.18716,0.34714,0.15406,0.25722,-0.93093,-0.6175,0.29168,-0.18026,-0.70558,-0.16406,0.92378,0.0014502,-0.064945,0.11215,-0.69156,-0.65569,0.4646,-0.43454,0.42953,0.64947,0.4658,-0.77261,0.14292,0.62596,0.081723,-0.48364,-0.197,-0.29577,-0.19767,0.69547,-0.0025347,0.57141,-0.69961,0.82373,0.95053,0.98558,0.75929,0.40028,0.70319,0.69795,0.94623,0.89931,-0.65151,0.80293,0.51974,0.090039
0.24929,-0.21692,-0.09809,0.15409,0.45688,-0.53689,-0.18437,0.69782,-0.15985,-0.35562,-0.8268,0.52584,0.37812,-0.53271,0.68376,-0.89708,0.30955,0.13748,0.97431,0.19985,0.81534,0.1554,-0.76073,-0.48058,-0.38279,0.82609,0.90481,-0.22581,0.062962,0.44377,-0.56141,0.44994,0.46327,0.18857,0.54389,0.49854,-0.97158,-0.95184,0.63603,-0.21597,0.62141,0.8938,-0.12409,-0.91433,0.011948,0.3042,0.74065,-0.39435,-0.49856,-0.42407
-0.33003,-0.75109,0.89713,-0.85837,-0.97589,-0.71815,0.11276,-0.51349,-0.24455,0.1744,0.88471,0.38823,0.90994,-0.060047,-0.55392,0.53664,0.6271,-0.29136,0.082197,0.6732,0.64176,0.37457,0.30065,-0.64411,-0.039873,-0.68613,-0.61238,0.57831,-0.42062,-0.41337,0.6141,-0.18298,0.49004,0.35726,0.31724,-0.29161,0.64713,0.75087,0.75091,0.43382,0.98498,-0.51447,-0.30162,0.078132,-0.8172,0.49728,0.17908,-0.32877,-0.58757,-0.96329
0.033442,0.72907,-0.74721,0.10504,-0.46815,0.70668,0.30183,-0.72237,-0.24028,-0.53214,-0.38722,-0.57451,0.63829,0.23242,-0.77797,-0.48339,0.1764,0.66658,-0.96543,0.5919,0.010847,0.040742,0.63485,0.63243,-0.78769,-0.13895,-0.41055,0.10953,0.034329,-0.18208,-0.27775,0.65138,-0.92664,0.65885,-0.16224,0.8283,0.087604,0.21243,-0.7135,-0.83473,0.14725,0.12121,-0.85109,0.32351,-0.34737,-0.79922,-0.27299,0.302,-0.72178,0.18134
0.70711,-0.99481,0.1301,0.095027,0.46521,0.45863,0.17866,-0.42697,0.16028,-0.0080987,-0.31259,-0.81816,0.92824,-0.057826,0.34732,-0.53484,-0.88806,0.4666,0.64174,0.71783,-0.41678,-0.31617,-0.86104,0.78356,-0.64946,0.95514,0.53956,0.085226,0.66066,-0.42648,-0.31476,-0.96309,0.24363,-0.78692,-0.36204,0.91628,0.85409,-0.095783,0.73242,-0.8543,-0.0027008,0.053731,-0.66325,0.44074,0.45846,-0.99465,-0.34985,-0.2406,0.41556,-0.79244
0.077024,-0.65599,-0.64064,0.76405,-0.4991,-0.34259,0.7186,0.25555,0.16012,-0.52577,-0.17361,-0.16566,0.028231,0.27962,0.45159,-0.78691,-0.88639,-0.63873,-0.89607,0.71947,-0.2767,-0.42757,0.16421,-0.69594,0.38194,-0.37972,-0.64729,0.061071,0.71108,-0.71709,0.49243,0.52944,0.97965,-0.55743,0.79375,0.57306,-0.83919,-0.36122,0.27981,-0.20653,-0.9321,0.7088,0.30759,0.22503,0.58808,0.53615,-0.28892,-0.54715,0.65324,-0.13301
0.83299,-0.41473,-0.81235,-0.91093,-0.53232,-0.83952,-0.93446,-0.59372,0.97379,0.43872,-0.19788,0.73347,-0.41622,-0.66035,0.31467,-0.14694,0.95377,-0.72699,0.5513,0.65537,0.68,0.56829,-0.51387,0.74501,-0.94932,-0.51194,-0.9627,-0.21122,0.85947,0.89928,0.4127,0.51688,0.96078,-0.59964,-0.70481,-0.40698,-0.28461,-0.83094,0.34297,-0.27345,0.60094,-0.25755,0.89277,0.75058,0.33933,-0.51684,-0.1153,0.73342,0.35407,-0.81279
0.7478,-0.029402,-0.77438,0.048297,-0.53343,0.48998,0.64919,0.31497,0.52257,-0.10687,0.76311,-0.86234,0.43937,-0.096365,0.90919,-0.25696,0.60824,0.31124,-0.3672,0.26742,-0.5273,0.95571,-0.24453,-0.45421,-0.8493,0.72016,0.826,0.60501,0.71824,-0.15747,0.18478,-0.34828,-0.19013,0.68514,0.13334,0.26183,-0.58598,0.85332,0.61674,0.55259,0.76933,0.87962,0.88731,0.53989,-0.16333,-0.66022,0.17592,0.22712,0.88729,0.88939
-0.086334,-0.88549,0.8494,-0.7886,-0.91957,0.42416,0.92398,-0.1858,-0.42824,-0.06116,-0.33946,-0.80957,0.85467,-0.26544,-0.97086,0.10679,0.23927,0.46445,0.3553,0.59402,0.17226,-0.2889,0.80842,0.22489,0.16215,0.97117,-0.99993,-0.59497,-0.20424,0.80085,-0.40988,-0.29688,-0.9201,0.55078,-0.1092,-0.46174,0.28869,-0.14981,0.64465,0.72693,0.12042,-0.9708,0.16762,0.95988,-0.8999,-0.78892,-0.50369,-0.67976,0.6915,0.57516
-0.14979,-0.7335,-0.82728,0.91916,0.057952,-0.1221,0.14827,0.69349,-0.50508,-0.40522,0.055811,-0.14833,0.00030155,0.83637,-0.21926,-0.73366,-0.46615,0.063521,-0.83819,0.38196,0.51234,-0.72649,0.064506,0.021409,-0.20771,-0.96653,-0.098474,-0.84736,-0.68657,0.55792,-0.14354,0.15149,-0.35926,0.80972,0.40821,-0.66664,0.18976,0.070493,-0.48268,-0.58344,-0.5968,0.17765,-0.24164,-0.58742,0.74833,0.60137,0.2906,0.44883,0.86785,0.58435
-0.1226,0.019174,0.25549,0.69837,-0.28947,-0.58148,-0.74086,0.52996,0.94703,-0.17257,-0.71647,-0.65238,0.26135,0.13519,0.88811,-0.56708,-0.98752,-0.09836,0.026633,0.87316,0.24339,0.43803,0.87449,0.16704,-0.18245,-0.69845,-0.16485,0.445,0.88592,0.84394,-0.53385,0.26675,0.36964,-0.79013,0.87255,0.054136,0.78904,-0.51414,0.30786,-0.17804,0.079609,0.075681,0.02888,0.97841,-0.12685,0.95092,-0.15618,0.23045,0.095182,0.96041
-0.48279,-0.38338,-0.12794,0.3488,0.28896,0.76996,0.55616,0.9764,-0.94543,-0.97628,0.85419,0.2359,0.095171,-0.79796,0.64636,0.82379,-0.7931,0.22187,0.22633,-0.97574,0.94431,-0.53991,0.52711,0.74491,0.42512,-0.30206,-0.61947,-0.8295,0.93358,0.12061,-0.40569,-0.96981,0.27347,0.76299,0.89888,-0.39644,-0.15309,0.10868,0.7249,0.066762,0.068914,-0.60509,0.54781,-0.39816,-0.81821,-0.52526,0.23559,0.33988,-0.8748,-0.7958
-0.97381,0.37148,-0.9114,-0.32357,-0.35221,0.88145,0.95573,0.69028,-0.10535,0.6511,0.46582,-0.65333,0.42245,0.1302,0.60554,0.5412,-0.77964,0.34396,-0.034339,-0.69721,-0.56276,-0.91636,0.33888,-0.11051,-0.93249,-0.53132,-0.52916,0.31275,-0.46138,0.55759,-0.19882,0.68052,0.25936,0.32858,-0.4789,0.0062238,-0.42021,0.47074,0.14929,-0.81876,-0.68896,-0.89169,-0.90886,0.99261,0.94664,0.37097,-0.085524,0.38439,-0.63618,-0.95162
0.85693,-0.82075,0.9445,-0.86649,0.69686,-0.50508,0.16716,0.82067,0.37308,-0.38762,0.72692,0.47148,0.37034,-0.34949,0.65264,-0.1153,0.21751,-0.12115,0.48398,0.062237,0.97386,0.59957,0.85222,-0.29118,-0.64436,0.36546,0.19846,-0.20296,0.90711,-0.88851,0.87852,-0.96364,-0.79018,0.17472,-0.48314,-0.7934,0.06145,0.86216,0.26466,0.72775,-0.30254,-0.70456,0.33864,0.14007,-0.50401,-0.52881,0.44338,0.60985,-0.5026,-0.13133
0.48361,0.22298,0.29256,-0.025274,-0.19924,0.20511,0.60594,-0.034539,-0.10973,-0.43506,0.96367,0.96438,-0.72116,0.61998,-0.84903,0.55436,-0.64468,-0.060956,0.40628,0.89471,-0.23769,0.64994,-0.36602,-0.44982,0.81469,-0.66836,0.17312,-0.43891,0.91046,0.48492,0.26109,-0.65757,-0.57987,0.30162,-0.34673,0.1017,-0.042822,0.71716,-0.39793,-0.64079,-0.91583,-0.9747,-0.24355,-0.22262,0.84858,-0.49469,-0.031271,0.68687,-0.62349,-0.41425
0.0064023,0.59965,0.20492,-0.5478,-0.57457,0.2719,-0.50449,-0.047404,0.38283,0.11553,-0.72151,-0.97429,0.44611,0.43596,0.69655,0.72188,0.085651,0.9047,-0.62922,-0.49186,0.91192,-0.0745,0.74996,-0.62646,0.17936,-0.50744,-0.25212,0.061644,0.50599,-0.41687,0.8088,-0.79115,0.51812,0.71236,0.084488,-0.98772,-0.51056,0.71829,-0.22924,-0.83105,0.2794,0.20037,-0.99763,-0.014483,0.50402,0.081685,0.92912,0.78383,-0.67768,0.55365
-0.94886,-0.063363,0.43405,0.88352,0.23798,-0.89909,-0.98362,-0.27496,-0.70302,0.49175,0.75876,0.4018,0.22121,0.6466,-0.6014,-0.24543,0.14754,0.23013,-0.010399,0.23301,0.047593,0.10552,-0.45675,0.7997,-0.13445,0.25216,0.12354,0.79434,0.56328,-0.95021,0.64391,-0.035131,0.031356,-0.8664,-0.33533,-0.3889,0.90357,0.50569,-0.0023286,-0.75407,0.95022,0.10991,0.44228,-0.62847,0.28625,-0.55561,-0.7486,-0.82227,0.98155,-0.057519
0.51646,0.6231,0.91901,0.32641,-0.20641,0.173,0.86609,0.82875,-0.37578,0.90517,0.81855,-0.86892,0.35954,-0.34419,-0.74056,-0.63181,-0.53385,0.39262,-0.86493,-0.060618,0.54704,-0.42718,-0.096417,0.31715,-0.76476,0.26995,-0.87425,0.46725,0.14555,-0.9582,-0.48835,-0.27023,-0.39627,0.10327,0.75169,0.92531,-0.58308,0.75823,-0.56807,0.25023,0.0023261,0.19295,-0.12164,-0.62526,0.4745,-0.21515,0.91549,0.95759,0.63965,0.43897
-0.38376,-0.55377,0.72823,-0.22908,-0.53395,0.18166,-0.22785,-0.87999,-0.74843,0.59258,-0.42119,-0.13549,0.056303,-0.42996,-0.44289,0.23152,-0.49373,0.48229,-0.45748,0.54232,-0.50759,0.087883,0.097198,-0.12735,0.42568,-0.61851,-0.96116,0.76578,-0.96885,-0.44049,-0.22852,-0.26533,0.38054,0.88687,0.17056,-0.094729,0.059972,-0.33115,-0.29522,0.18925,0.5502,-0.55074,0.77569,0.73019,0.84153,-0.0095115,-0.67774,-0.93523,-0.016574,0.78523
-0.87428,0.44552,-0.28569,-0.54905,-0.57084,-0.23438,0.18159,0.98563,0.31691,-0.76612,0.12541,0.72797,-0.92658,0.8866,-0.39795,0.63404,-0.67385,-0.11512,0.99212,0.56054,-0.039418,0.74906,-0.85197,-0.91618,0.12778,0.52235,-0.94076,0.32269,-0.1301,0.064255,-0.74932,-0.02863,0.66243,0.39164,-0.38576,-0.13602,0.41352,0.73219,0.35313,0.77804,-0.75091,0.64923,0.13441,0.29709,0.027716,-0.98568,-0.82094,0.62089,-0.73753,0.58341
-0.68068,-0.2777,-0.29683,-0.17859,-0.96363,0.80023,-0.02256,-0.2354,0.71088,0.052563,-0.072748,0.86489,0.69398,-0.13751,0.76814,-0.1391,-0.57795,-0.10592,0.93355,0.047539,0.83414,-0.076406,-0.39486,-0.66697,-0.9653,0.19884,-0.82825,-0.17611,0.26261,0.50264,0.62147,-0.15826,-0.40634,-0.87417,-0.3063,0.35367,-0.8582,-0.50461,0.84605,-0.056834,-0.10649,-0.41706,0.7864,0.9985,0.92005,0.47392,0.32159,-0.3023,-0.80784,-0.70891
0.83796,0.05419,0.13578,0.8034,-0.4096,0.36394,-0.54962,-0.23626,0.13578,0.88421,0.87608,0.61172,-0.057104,-0.33232,0.22141,0.01979,0.026201,-0.55526,-0.96024,-0.74991,-0.14801,0.72051,-0.72443,0.24677,0.42147,-0.89111,0.21808,-0.36909,0.64831,-0.69263,0.91755,-0.34791,0.58178,-0.35007,-0.23712,-0.49478,0.045322,0.7442,0.89469,0.3073,0.1026,-0.8655,0.042155,-0.49852,0.15369,0.22153,0.82976,-0.37079,0.70921,-0.53382
-0.22066,0.18399,0.70178,-0.044813,0.50132,0.6839,0.3872,0.23104,0.63066,0.26859,-0.94946,0.53173,-0.55088,-0.53131,0.80579,0.4503,-0.079189,0.38529,0.10866,-0.41892,0.87306,-0.88207,-0.70292,0.43438,0.63928,-0.85604,-0.53502,-0.21418,-0.59875,0.91325,-0.011517,-0.15829,-0.88231,0.69266,0.96362,-0.33862,-0.86253,-0.24159,-0.16304,0.051705,-0.049573,-0.47141,0.28614,0.98666,-0.47127,-0.32688,0.30759,0.039798,0.64106,0.40677
-0.61798,-0.44139,-0.66154,-0.54896,-0.23412,0.74141,0.52325,-0.40067,-0.3576,0.67541,0.68812,-0.33855,-0.94521,0.31461,0.30179,-0.713,-0.97188,0.66319,0.87037,-0.13156,-0.35887,0.39291,0.99783,-0.97383,-0.20885,0.93956,0.55023,0.65289,-0.1762,-0.63955,-0.96505,0.39437,0.30745,-0.099458,-0.31916,-0.96235,0.15686,0.8007,0.9905,0.53481,-0.41601,0.78833,-0.79938,0.57074,0.81144,-0.21332,0.90683,0.21512,-0.76986,-0.24485
0.49167,0.88849,0.27106,-0.48797,-0.25556,0.023629,-0.33363,0.2743,0.088748,-0.20459,-0.95774,0.87411,-0.7947,0.62869,-0.39529,-0.001149,0.27595,0.14391,0.30225,-0.98027,-0.98942,0.18054,0.21328,0.38885,-0.44346,-0.35827,0.17184,-0.208,0.92029,-0.20252,0.77835,-0.71228,0.56146,-0.82104,0.39091,0.84919,0.52209,-0.25163,0.75895,-0.82277,0.16149,-0.31438,-0.14529,0.079356,0.92206,0.14014,-0.11967,0.0040763,-0.89213,-0.94779
-0.094067,-0.15813,-0.21054,0.33323,-0.97513,-0.81692,0.28477,0.68528,0.90467,-0.29703,0.008465,-0.62819,-0.83282,-0.24915,-0.13339,-0.53899,-0.69888,0.79336,0.53265,-0.34333,0.8385,0.6638,-0.88171,0.79544,-0.34416,0.1705,-0.52785,-0.088021,-0.86877,0.083289,0.93121,0.81507,-0.81632,0.18003,0.92373,-0.23389,0.78261,-0.84516,0.0023019,-0.51821,0.14982,-0.70772,-0.94108,-0.24013,0.44564,0.34558,-0.47516,-0.18317,0.17761,0.63082
0.83233,-0.54938,-0.15483,0.68442,-0.3357,0.5266,0.27023,0.83685,0.90162,-0.59015,-0.68112,-0.90208,0.36438,0.9034,0.16802,-0.61023,-0.887,-0.32037,-0.83019,-0.18748,-0.31997,0.58078,0.90384,0.42683,0.54977,0.55595,0.97231,0.27155,-0.17515,-0.68817,0.25225,0.62256,-0.21221,-0.07101,-0.42997,-0.13001,0.77665,-0.54292,0.20555,-0.061769,0.86531,0.26585,0.42163,0.79692,0.8508,0.21539,0.78965,-0.93173,-0.98879,-0.81538
-0.59742,-0.5694,0.65418,0.5715,-0.83626,0.13752,-0.82488,-0.2018,-0.9075,0.89582,-0.35385,0.87255,0.09684,0.33684,0.79819,-0.14664,-0.98964,-0.059442,0.60131,-0.47297,0.98813,-0.53681,0.060144,-0.29329,-0.9438,0.6369,0.65866,0.33939,0.5594,0.85319,-0.089224,-0.45819,0.26704,-0.040539,0.04979,-0.20803,0.33262,0.75824,-0.95843,-0.053923,0.58529,0.28016,0.34657,-0.20101,-0.45611,-0.044966,0.62362,0.19885,-0.3487,0.5804
0.72248,-0.26503,0.85011,0.077188,-0.093022,0.035217,-0.45358,-0.21818,0.45571,0.71891,-0.16587,0.076661,0.064478,-0.35873,-0.72309,-0.19368,-0.9759,-0.61188,-0.23644,-0.86701,-0.54918,0.31765,0.84057,-0.66837,0.64572,-0.44461,-0.74515,-0.58295,0.10137,-0.61179,0.075965,0.81002,0.93417,0.013379,-0.50681,-0.99951,-0.17365,-0.59793,0.72807,-0.38626,-0.81161,0.80562,0.68187,-0.91026,-0.048708,0.66769,0.94121,0.17538,0.298,-0.030441
0.55111,0.48853,0.42682,0.81115,-0.36285,0.90786,-0.75717,-0.78484,-0.47903,-0.11441,0.66091,0.90548,-0.57288,-0.92769,0.56541,0.49426,-0.46001,0.33846,-0.8942,-0.87205,-0.4032,0.38936,0.75696,0.74016,0.048646,0.4139,-0.28899,-0.50138,0.3686,-0.00018358,-0.25343,0.16822,0.86785,-0.60251,-0.44634,0.18964,-0.24126,0.85947,-0.69065,-0.98571,0.5324,-0.25952,0.7483,-0.92247,0.90299,-0.17708,0.9,0.58686,0.84806,0.33574
-0.85637,0.90457,0.24583,-0.42427,0.84697,0.4749,0.60191,-0.068622,0.88258,-0.63229,0.6566,-0.22364,0.14355,0.51801,-0.90904,0.15966,0.43766,-0.4699,0.58605,-0.57864,0.65694,-0.80356,-0.079574,-0.69222,0.71727,0.095697,-0.97988,0.36035,0.099986,-0.63629,0.77333,-0.60271,-0.95477,-0.073622,0.23192,-0.6842,0.17697,-0.17257,0.51125,0.60318,0.32202,0.46472,0.25941,-0.23607,0.076169,-0.22207,-0.21322,0.12492,-0.7873,0.31739
-0.54315,0.052903,0.18808,0.22372,0.10519,-0.17038,0.34516,0.21242,0.24896,0.16613,-0.61522,0.60149,0.97496,0.90212,-0.31131,0.87072,0.54007,-0.4796,-0.70684,0.86048,0.93852,-0.58799,-0.19582,0.63661,0.39541,-0.61776,0.21129,0.32381,0.71851,-0.19787,0.91234,0.33656,-0.35633,0.28576,0.20085,0.94891,-0.38306,-0.75677,0.97605,-0.41845,0.84224,-0.027244,-0.29096,0.95066,0.084105,0.878,0.98515,0.035574,-0.2878,0.11224
-0.94469,-0.5692,0.27522,-0.19746,-0.39018,0.84182,-0.62544,-0.046129,-0.17901,-0.043191,-0.94389,-0.87588,-0.41791,0.070162,0.48973,-0.38728,-0.9688,-0.14839,0.40981,-0.78749,-0.040138,-0.20613,-0.021747,0.2975,-0.22035,-0.57557,0.70156,0.19711,-0.36229,0.35672,0.7004,0.67628,-0.10186,0.6689,-0.75075,0.31467,0.36644,-0.068763,0.3927,0.33984,-0.47011,0.88853,0.21954,-0.59691,-0.19548,0.78718,-0.24557,-0.014354,0.15604,0.96464
0.97083,-0.31622,-0.62882,0.090308,-0.90295,0.23897,-0.8878,0.78359,-0.37614,-0.22019,-0.91859,-0.39166,0.708,0.91364,0.73351,0.3708,-0.074883,-0.3351,0.89336,-0.089801,0.76901,0.77603,-0.9531,0.30786,-0.87398,-0.6197,-0.26254,-0.2669,-0.57662,-0.87427,0.63544,-0.53196,0.70816,0.029307,0.37216,0.084126,-0.97376,0.50774,-0.87232,-0.72582,-0.096006,0.78885,0.88109,0.3232,-0.63539,0.10044,-0.82745,0.040876,-0.36674,-0.29287
0.37416,-0.43461,0.95719,-0.058657,-0.92657,0.10935,0.76925,-0.19506,-0.080626,0.025735,-0.36228,0.38688,-0.63395,0.26967,0.98962,-0.036782,0.56636,-0.55504,0.19009,-0.48843,-0.63386,0.53568,-0.99607,-0.31348,0.48439,-0.1597,0.90879,0.096412,-0.1978,0.99177,0.17649,0.30611,0.68166,0.1825,0.013587,-0.30592,-0.71599,0.24047,0.21141,-0.87053,0.99092,-0.66793,0.057463,0.42477,-0.73371,0.1686,-0.4548,0.31963,-0.35039,0.75141
-0.69104,-0.98348,-0.090171,-0.89902,0.49505,-0.86043,-0.83653,-0.73802,0.46422,0.21849,-0.24751,0.94012,0.0068456,0.17551,-0.47614,0.36388,-0.32638,0.99166,0.074744,0.16741,0.73662,0.40189,-0.14473,-0.63904,0.81992,-0.17645,-0.24536,-0.3899,0.62857,-0.40414,-0.55066,-0.79309,0.22549,0.18938,-0.3091,0.90782,-0.32496,0.24931,0.97521,-0.17607,-0.55196,0.69871,-0.47381,-0.97105,-0.51976,0.83918,0.9981,-0.41539,-0.10583,-0.82915
0.38614,-0.20879,-0.13962,-0.063809,-0.28869,0.65292,-0.42936,-0.52766,0.68586,0.31783,0.60661,-0.55289,0.26076,0.090476,0.47885,-0.47003,0.54205,0.64431,0.65961,-0.51578,-0.49808,-0.18825,0.303,-0.2361,0.89716,-0.37121,-0.65078,-0.4326,0.27867,0.35262,-0.56227,0.34776,-0.72432,0.51817,0.5162,0.53312,-0.90042,0.76762,-0.36773,-0.60297,-0.042402,0.67089,-0.071589,-0.11583,0.35109,-0.24502,0.04637,0.89754,-0.081992,-0.40434
0.35637,0.82669,0.39949,-0.48251,-0.46564,-0.86724,0.7161,0.27832,-0.68965,-0.36087,0.91375,0.87218,-0.82506,-0.70909,-0.58088,0.11014,-0.16325,-0.24538,0.76869,-0.7109,-0.074612,-0.84714,-0.75536,0.97575,-0.72339,-0.1561,-0.10931,0.60387,-0.24968,0.71148,-0.36743,-0.34541,-0.52467,0.4691,-0.61941,0.6759,0.32682,0.90747,-0.51773,-0.49023,-0.42883,-0.057984,0.62858,-0.40473,0.11022,0.18444,-0.43491,0.083633,-0.40214,-0.68673
0.94508,-0.63002,-0.9373,0.93665,0.76148,-0.14089,-0.90004,-0.99872,0.25189,-0.00057702,0.56016,-0.81881,0.7327,-0.14996,0.10091,0.17849,0.74578,-0.07507,-0.27385,0.1132,0.63084,-0.62978,0.7874,-0.10498,0.8629,0.54116,-0.68948,0.77982,-0.31819,-0.62404,0.47519,0.72295,0.68329,0.21524,0.62673,0.68772,0.098043,0.54148,-0.62273,0.59195,0.30037,0.74493,0.033188,0.25091,-0.27042,0.11383,-0.13155,-0.13102,-0.51061,0.16416
0.60665,0.050707,-0.30198,0.49568,0.4774,0.67669,0.62238,-0.98538,0.20971,0.85701,0.2062,-0.33814,0.64639,0.28988,-0.77214,0.90913,0.60056,-0.96105,-0.82679,-0.90066,0.39628,0.19934,0.31902,0.4412,-0.95141,0.65642,-0.66025,0.32914,-0.54976,0.71775,-0.068263,0.10843,0.47491,0.10477,0.90797,0.98477,0.91167,0.34473,-0.08081,-0.17899,0.82732,0.67699,-0.098089,-0.32126,-0.23067,0.89138,-0.40205,-0.021795,0.084984,0.18616
-0.8536,-0.31425,-0.39562,-0.86707,0.89062,-0.31811,-0.41326,0.9973,0.79792,-0.70828,0.59047,-0.96287,-0.88996,-0.79796,0.98819,0.71995,0.2511,-0.36871,-0.90104,-0.74194,-0.12891,0.12319,-0.11724,0.56807,-0.96466,-0.24783,0.19296,0.21634,0.47202,0.39891,-0.47244,0.70629,0.97691,-0.45935,-0.65285,0.54952,-0.74649,0.92794,-0.57233,0.74971,0.6548,-0.4153,-0.62899,0.65309,0.11132,0.83523,0.36299,0.24568,-0.46941,-0.035881
0.95817,-0.53711,-0.57199,-0.13945,-0.16704,-0.61919,-0.053254,0.48008,0.56161,0.54795,-0.015045,0.797,0.70323,-0.18604,0.61042,-0.11488,0.23993,-0.90685,-0.074962,-0.048145,-0.89653,-0.46282,0.12558,-0.62605,-0.23799,-0.72303,0.97257,-0.93214,-0.96167,-0.98095,-0.28483,0.79464,0.29375,-0.32463,-0.70969,-0.218,-0.84083,-0.79677,-0.38814,-0.82004,0.99529,-0.89832,-0.60503,-0.3757,-0.34929,0.29506,0.082951,0.0007322,0.70457,-0.94652
0.1538,0.45943,0.84005,0.42004,-0.80364,0.70601,-0.79618,0.70227,-0.98665,0.19508,0.028585,-0.51953,0.72371,0.6104,-0.014122,0.53746,-0.033351,0.63233,-0.93764,0.8984,-0.33188,-0.53353,0.01312,-0.204,0.41985,-0.95091,-0.203,-0.68858,-0.77779,0.986,-0.47425,-0.64674,-0.70082,0.61524,-0.28938,-0.70731,-0.26249,0.42095,-0.17994,-0.80358,0.42752,-0.87628,-0.050773,0.42711,-0.69626,-0.39766,-0.46761,-0.31902,-0.70492,-0.3877
-0.051451,-0.2545,0.076436,0.13973,-0.19124,-0.87145,0.41089,-0.3974,0.61695,-0.28187,-0.43195,-0.62495,0.2004,0.37448,0.16032,0.098375,-0.20876,-0.3616,0.78912,0.11632,-0.74337,0.39373,-0.91011,-0.91695,0.31677,0.54119,0.41927,0.39617,-0.48233,-0.4589,-0.48312,-0.1436,0.57857,-0.43419,0.19418,-0.4484,0.12886,-0.365,-0.24462,-0.48786,-0.55183,-0.61703,-0.86182,-0.86314,0.94597,0.18069,0.66099,0.090355,0.90735,0.99089
-0.58636,0.87151,0.77895,-0.67197,-0.78426,-0.29023,-0.56699,-0.68218,-0.82599,-0.080649,-0.09753,-0.15297,-0.011991,0.66571,0.92205,-0.57026,-0.0042303,0.11651,-0.041455,-0.012124,-0.90857,0.24578,0.94637,0.0098191,0.10671,-0.18692,-0.42951,0.84089,0.22233,0.64521,-0.89142,0.56811,-0.183,0.29398,-0.17072,0.46222,-0.62322,0.27636,0.78303,-0.91412,-0.54176,0.79351,-0.75778,-0.96748,0.040476,-0.40643,-0.67618,-0.87499,-0.98532,-0.67557
0.68527,0.6241,-0.64553,0.54941,-0.061894,0.082901,-0.7782,0.095874,0.9159,0.21919,0.75335,0.83949,0.17683,-0.96023,0.50855,0.21152,0.96131,0.036978,-0.13926,-0.25051,0.39487,-0.8343,0.4197,0.48189,0.53219,-0.15226,0.092127,0.069657,-0.87149,0.39849,0.28181,-0.38084,-0.16769,-0.00282,0.075986,-0.78407,-0.14866,-0.57613,0.93519,-0.85403,0.57287,0.1608,-0.94113,0.54144,0.5242,0.58683,0.61106,0.07025,0.62023,-0.41011
0.21025,-0.98061,-0.18649,-0.88457,0.41458,-0.58193,-0.96654,-0.14223,-0.97803,-0.12285,-0.52872,0.67748,-0.83289,-0.57211,-0.36345,-0.75877,-0.86577,0.92951,0.50926,0.73777,0.54027,0.44634,-0.25881,0.043513,-0.60739,-0.30197,-0.36746,0.78441,-0.86579,0.61791,0.77771,0.994,-0.52809,-0.87189,-0.0093492,-0.82591,-0.58412,-0.091716,-0.41483,-0.3104,0.10047,0.75132,-0.77922,0.3473,-0.77145,-0.85533,-0.65816,0.29506,0.21066,-0.67943
-0.3367,0.71133,0.55887,-0.98945,0.98671,0.9885,-0.53287,-0.70091,-0.54545,-0.95395,0.0043715,0.50259,-0.32912,-0.0029832,-0.78614,0.22769,-0.74632,-0.05436,0.037156,0.37209,0.21895,0.21711,-0.019893,0.40816,-0.036744,0.78678,-0.20071,-0.86881,-0.12347,-0.44267,0.52563,-0.76994,-0.11526,0.095953,-0.1444,-0.70286,-0.21833,0.0057924,-0.71809,0.46009,0.71627,-0.11133,0.36993,-0.75369,0.30627,-0.71785,-0.56753,0.062244,-0.29148,-0.86453
0.40494,0.10334,-0.9074,0.7797,0.52819,-0.42735,-0.0078847,-0.36269,0.084753,0.093955,0.16083,-0.23111,0.79066,0.03444,-0.60575,-0.92165,0.51762,-0.83511,0.75441,-0.33875,-0.21464,0.14803,0.83736,0.45928,-0.67303,0.090948,0.038891,-0.137,0.99332,-0.83014,0.76853,0.10854,-0.30229,0.60432,-0.57,-0.21797,-0.080031,0.44178,0.98254,0.12158,-0.29127,0.59672,0.16606,0.54146,0.17948,0.24955,-0.56005,-0.40322,0.24098,-0.23978
0.25467,-0.83861,0.95069,-0.84139,-0.22956,0.74996,0.40848,0.56636,0.29458,0.60549,-0.39277,-0.12118,-0.90679,0.62654,0.012929,0.44943,0.63412,-0.43108,-0.97133,-0.58782,-0.25364,0.54805,0.039417,0.93386,0.8088,-0.13024,0.19977,-0.36969,-0.10775,-0.95518,0.89276,-0.056923,0.37128,0.933,-0.24179,-0.22707,0.97201,0.08009,0.58056,0.32742,-0.10111,-0.36562,0.021726,-0.802,0.20607,0.046021,0.39246,-0.012082,0.11246,-0.49753
-0.51656,0.43979,0.80776,-0.29651,-0.61889,-0.26097,-0.4834,0.50731,-0.61561,0.11214,-0.73445,0.45863,-0.47435,0.72637,-0.94611,-0.33255,-0.59568,-0.66051,0.67582,0.56575,-0.84255,-0.32289,0.26247,0.51544,-0.4466,-0.20389,-0.76193,0.074492,-0.62181,-0.59714,-0.40725,0.62429,-0.69992,-0.45196,0.70584,0.56728,-0.85584,-0.69179,-0.649,-0.6326,0.48654,-0.95012,0.87231,-0.10383,0.71935,-0.36804,-0.015795,0.17104,0.18077,-0.18388
0.19615,0.22728,0.28293,0.56467,-0.16988,-0.21989,-0.57377,-0.10305,0.2538,-0.20293,-0.24324,-0.47519,0.39768,-0.82606,0.49175,0.54301,0.96401,0.18572,-0.99445,0.80059,0.2496,-0.9912,-0.252,0.11598,-0.87252,-0.21211,0.96944,0.41477,-0.77664,-0.34663,-0.69266,0.21915,-0.19664,-0.77213,-0.95294,-0.77098,0.50901,-0.75616,-0.70469,-0.29373,-0.08736,-0.79652,0.39505,0.37038,-0.75648,0.5062,-0.76823,0.29807,0.1314,0.72165
0.80127,0.873,0.15956,-0.84595,0.27368,-0.55633,0.22776,0.15424,0.075473,0.41512,-0.58461,0.031211,-0.35722,0.44239,-0.96208,0.88718,0.44144,-0.72903,-0.5428,0.93105,-0.47035,0.79003,0.38931,0.29306,0.23008,0.60086,0.21951,-0.30737,-0.45275,-0.13477,-0.8221,-0.38069,-0.98764,0.20381,0.055315,0.16801,-0.32334,0.069739,-0.98553,-0.72086,-0.07735,-0.3743,-0.97199,0.58252,0.47208,0.22774,0.46473,-0.1022,-0.086125,0.10502
0.46286,0.40107,0.5349,-0.035189,-0.83972,-0.47253,-0.32322,0.88121,0.89778,0.34306,0.17185,-0.91389,0.18815,0.75988,0.31109,0.51631,-0.99993,-0.28551,-0.88455,0.71009,-0.58575,0.8243,-0.67632,-0.3783,-0.26616,-0.89868,0.46012,-0.99081,-0.98777,0.19119,0.011587,-0.013519,0.50428,0.017414,0.049291,-0.64963,0.67666,-0.0068554,-0.71385,0.56125,-0.82245,-0.6982,0.39928,-0.46721,0.98868,0.28297,-0.7058,-0.7995,-0.50062,0.61954
0.26785,-0.87783,-0.68244,-0.26553,-0.92226,0.71752,0.99146,-0.46122,-0.5604,0.29931,-0.47165,-0.3216,0.5737,0.73272,-0.53398,-0.050072,-0.92379,0.032991,-0.44141,-0.56155,-0.1001,-0.16702,-0.55016,-0.090277,0.68912,-0.72999,0.61443,-0.75101,-0.49564,-0.86806,0.77213,-0.21642,-0.095745,0.90448,-0.19911,-0.64311,-0.20797,-0.41195,-0.86377,0.060352,-0.98638,-0.18952,-0.07521,-0.89219,-0.68202,0.41511,0.83489,-0.18392,0.24499,-0.63361
-0.59082,-0.98491,-0.45744,0.52845,-0.95068,-0.96264,-0.024055,-0.15799,-0.26592,-0.8473,-0.64954,-0.63505,0.69138,0.059034,0.95897,0.33552,0.76967,0.93176,0.61764,0.31762,-0.34943,0.61417,-0.79938,-0.58188,0.53097,-0.38126,-0.90707,-0.061051,-0.81445,0.67229,-0.93404,-0.67061,-0.1812,0.8954,-0.98181,-0.38198,-0.7625,0.67879,0.51265,-0.17813,0.35613,0.61454,0.58302,0.58957,-0.033167,0.7145,0.57623,-0.8034,0.63071,0.3453
-0.80762,-0.67415,-0.86615,0.67915,0.70335,0.43605,0.68466,0.095426,-0.21792,-0.67854,-0.041891,0.59208,-0.37368,0.76472,0.75807,0.48663,0.97024,-0.54683,0.55287,-0.66244,0.95342,-0.038876,-0.25585,-0.50227,0.74129,0.13484,0.3099,-0.2353,0.56648,-0.20678,0.18451,0.36213,-0.33118,-0.90599,0.76444,0.8209,-0.96585,-0.77879,0.32734,-0.63137,-0.6332,-0.16927,-0.11645,-0.49635,-0.18029,-0.31997,-0.73345,0.5701,0.9289,-0.60742
0.14963,0.31128,-0.8297,0.071946,-0.63707,-0.64836,0.58731,-0.76808,-0.67083,0.10448,-0.57845,0.74182,0.85537,-0.40542,0.2324,-0.30467,-0.43573,0.38485,-0.1244,0.016602,0.31065,-0.88003,0.17347,0.92271,0.16566,-0.26904,-0.7107,-0.64656,0.91317,0.55564,-0.15668,0.74771,-0.20233,-0.22303,0.89332,-0.67114,-0.3305,-0.67935,-0.82958,0.83819,-0.11557,0.11232,-0.43942,-0.55024,0.84832,0.82256,0.16691,-0.2071,0.87251,-0.13654
-0.37091,0.84794,0.48475,-0.90557,-0.30494,-0.26307,-0.45801,0.9699,-0.065438,0.60632,0.079185,0.83535,0.18363,0.51207,-0.84071,0.79087,0.37866,-0.20666,-0.20018,-0.42977,0.014771,-0.29001,0.41816,0.83253,-0.15508,-0.53983,0.016287,0.64857,0.38067,-0.90387,0.81828,0.99144,-0.21212,0.86715,0.93145,-0.92223,0.09679,0.037103,-0.31727,0.38001,0.61068,0.37305,0.55887,-0.21513,-0.91368,0.25671,0.96673,-0.61935,0.60214,-0.025917
0.76998,-0.25118,-0.77742,-0.49201,0.87838,0.67907,0.67662,-0.21853,-0.145,-0.87454,-0.80168,-0.47945,0.059604,0.82547,0.5725,-0.94346,-0.30538,-0.10142,-0.51121,0.42269,0.57571,-0.53921,0.38001,-0.83482,-0.75547,0.41391,-0.8446,0.64643,-0.77938,-0.8793,-0.23581,-0.29598,0.95179,0.99824,-0.43665,0.13514,0.52671,-0.69243,-0.32152,0.62646,0.47831,0.7197,-0.79385,-0.97014,-0.66084,0.31705,-0.98932,0.142,0.26299,0.39905
-0.037258,0.7813,0.026304,-0.73339,-0.48255,0.67759,-0.10959,0.0088518,0.059318,-0.34207,-0.095697,0.95142,-0.56046,-0.51226,0.89458,0.35263,0.020877,-0.049632,-0.67011,0.80457,-0.76502,-0.88517,0.90846,-0.82658,-0.74977,-0.52086,0.12427,-0.68899,0.78574,-0.7551,-0.98366,0.12132,-0.079859,0.58833,-0.43939,-0.816,0.48597,-0.53556,0.0014659,-0.20547,0.31634,0.68453,0.52225,-0.60084,-0.37569,0.74269,-0.727,0.93591,-0.10322,0.050412
-0.32346,0.93619,-0.58032,0.27433,0.60957,0.98712,-0.19184,0.60721,0.040926,0.46939,0.93349,-0.71967,-0.4904,-0.5497,-0.8524,-0.7192,0.39233,0.37045,0.035142,0.051754,0.60568,0.35822,-0.87944,0.28279,0.81921,0.5738,-0.60094,0.34159,0.92451,-0.60553,-0.075969,-0.89911,-0.53868,-0.26802,-0.86328,-0.57155,-0.16162,0.81385,-0.83765,-0.68066,0.89375,-0.20199,-0.25402,-0.24853,0.60384,0.77071,-0.6651,-0.55993,0.37945,0.69422
-0.21231,-0.53218,-0.3083,0.12999,0.331,0.31157,-0.19658,0.9284,-0.31006,0.4431,0.44518,-0.72265,0.11076,0.16848,-0.76036,0.064347,-0.32749,-0.38987,-0.66679,-0.85397,-0.66243,0.33369,-0.078813,0.61375,-0.78103,0.27908,-0.36508,-0.81447,-0.20709,-0.36117,0.38956,-0.10778,-0.34132,0.18397,-0.70605,-0.079163,-0.10677,-0.30633,0.0846,0.79241,-0.71092,-0.90758,0.42606,0.19716,-0.46962,-0.27685,-0.33608,-0.39788,-0.90302,0.28302
0.30751,0.31258,-0.34064,-0.21498,0.38097,-0.40448,0.75575,0.1383,-0.28148,-0.53524,0.0093367,-0.066979,-0.0044448,0.042182,0.39884,0.25706,-0.14944,-0.27239,-0.72074,-0.082174,-0.57885,-0.981,-0.89896,0.79846,-0.60678,0.3888,0.73008,-0.95695,0.70707,0.4514,-0.92382,0.96477,0.26093,-0.19635,0.4551,-0.58015,0.14998,0.085282,-0.34774,0.27432,0.39065,-0.56949,0.79308,0.49771,-0.9562,0.968,-0.21553,-0.98952,0.15048,0.030291
-0.47711,0.21109,-0.67812,-0.4492,0.94746,-0.92286,-0.070771,-0.77706,0.32516,0.12382,-0.70092,0.25698,-0.81286,0.019562,-0.67833,-0.90979,0.33926,-0.054772,-0.098959,0.2608,0.30069,-0.31526,-0.57728,-0.12649,-0.014402,0.22566,-0.67495,0.53673,0.12406,0.10419,-0.85165,-0.57163,0.26084,0.0086637,0.52813,-0.71177,-0.94196,0.18522,-0.78099,-0.49845,0.54718,0.05354,-0.26914,-0.67456,-0.65243,-0.85675,-0.54336,0.92902,-0.42057,0.93247
0.92529,0.54396,-0.60764,-0.022908,0.2236,0.12244,0.63067,0.46195,0.93411,0.62488,-0.25233,-0.28071,-0.17728,-0.26507,0.92422,-0.69318,0.14553,-0.03919,-0.17088,-0.22004,-0.62799,0.89075,0.36428,0.53958,0.96012,-0.69322,0.56628,0.91436,-0.76583,-0.12935,-0.42895,-0.12704,-0.68597,-0.40603,0.93435,-0.60784,-0.98566,-0.37879,-0.74563,0.47998,-0.79924,0.63435,0.26907,-0.22994,-0.86667,-0.37602,-0.86162,-0.64652,-0.36702,-0.063028
0.58133,-0.12914,-0.24781,0.15752,-0.60551,0.36223,0.083771,0.66133,-0.17344,-0.77075,-0.87675,0.86917,0.33428,0.20673,0.32909,0.058042,-0.78435,0.9495,-0.40165,0.45284,0.60136,-0.52071,-0.88685,0.097003,-0.44938,-0.46948,0.46501,-0.12108,0.07597,-0.37321,0.52652,0.10519,-0.97969,-0.65989,0.36217,-0.99799,-0.059646,-0.6334,-0.19282,-0.75577,-0.70768,0.48065,0.16346,-0.90475,0.54101,0.099613,-0.64755,0.17196,0.4615,0.92722
-0.80007,-0.74891,-0.8038,-0.19546,0.83166,0.68936,0.55401,0.84735,0.75547,0.787,0.30098,0.39358,-0.52429,-0.69016,-0.13764,0.38475,0.55865,0.55185,0.010125,0.19427,-0.00056774,-0.79668,-0.44602,0.44314,0.52911,-0.20667,-0.10769,-0.30497,0.67565,-0.95105,-0.76206,-0.5517,-0.46679,-0.1237,-0.24504,0.3093,-0.78777,-0.99023,-0.31889,0.49878,-0.27849,-0.55853,0.34958,0.48482,0.9352,-0.46321,-0.94584,-0.74076,0.37583,-0.88742
0.11361,-0.96017,0.17507,-0.23686,0.23534,0.93129,-0.70077,-0.099651,-0.49579,0.73367,0.0025052,0.39961,-0.58944,-0.15135,0.39784,0.9669,-0.11744,-0.67775,-0.98513,0.50526,0.84342,-0.015939,-0.20635,-0.26895,-0.16575,0.55176,0.93557,-0.80599,0.098176,0.8382,-0.99057,-0.77859,0.024217,-0.30972,-0.12945,0.51636,0.93087,0.472,-0.40284,0.16018,-0.056418,0.21985,0.41647,0.22903,-0.22271,-0.53245,0.7748,0.24566,0.45401,-0.11398
-0.16882,-0.60243,-0.59194,-0.80484,-0.68177,0.87538,0.14593,0.67621,0.96655,0.20186,-0.67124,0.69818,0.3384,-0.0083268,0.89551,-0.88836,-0.6512,0.96149,-0.41562,-0.8766,-0.71844,-0.92235,0.64811,0.93335,0.43746,-0.98121,-0.98159,0.24208,-0.11091,-0.60955,0.88664,0.33771,0.50825,0.50912,-0.27224,-0.30247,0.86657,0.81421,0.73676,0.82175,0.70383,0.6254,-0.17487,0.98599,0.65423,-0.57127,-0.92727,-0.43208,0.026407,0.77283
-0.46817,-0.41108,0.87372,0.09405,-0.28678,0.22407,0.98662,0.29434,0.30421,0.56777,-0.19243,-0.46933,0.64795,-0.96679,-0.54547,0.93592,0.13019,-0.63327,-0.92373,-0.048883,-0.64063,-0.65701,0.0943,-0.031501,0.68976,-0.077088,0.17771,-0.23806,0.85077,0.32733,0.64204,0.39496,-0.36974,0.10449,-0.29751,-0.1904,0.06381,0.32319,0.90277,0.13964,0.48079,-0.83252,0.44445,0.60389,0.29933,0.90353,-0.56307,0.35271,-0.0032477,0.2114
-0.078272,0.42184,0.69226,-0.37062,0.2343,0.83535,0.31171,-0.30059,-0.56836,0.37395,0.48669,-0.60603,-0.79549,-0.43195,-0.90228,0.53277,0.85621,0.17605,0.24519,0.59526,0.86719,0.55084,-0.40918,-0.68874,0.71352,0.083747,-0.22219,-0.87211,0.97588,-0.70365,-0.077439,-0.029999,-0.16702,0.68314,-0.63736,-0.35027,-0.54869,-0.73442,-0.047574,-0.23094,-0.41659,0.53165,0.72467,0.7194,0.46582,0.57531,-0.18677,0.10212,0.68849,0.15233
-0.5972,0.042794,-0.64781,-0.75697,-0.80011,0.49072,0.41982,0.70992,-0.56777,0.56017,-0.18598,-0.7565,-0.98897,0.38091,-0.93052,0.1971,0.90022,0.085313,-0.85622,-0.1965,-0.10972,0.81084,0.24737,-0.53002,-0.44115,0.1777,0.8962,-0.00018156,-0.09578,-0.5537,0.99394,-0.31271,-0.49951,-0.80837,0.65853,-0.058754,0.49661,0.49122,0.090038,0.43377,0.4375,-0.53456,-0.0075461,0.3629,-0.15717,-0.68107,0.19189,-0.25025,0.58065,0.55065
0.39493,-0.010231,0.33938,0.94075,0.71193,-0.10268,0.1388,0.37471,-0.76335,0.22476,0.6546,0.013272,-0.80999,0.85384,-0.20956,0.2239,-0.4296,-0.93527,-0.69163,-0.035963,-0.32841,0.88006,-0.99965,-0.5361,-0.16924,-0.028022,-0.53997,0.56803,-0.16222,-0.59406,-0.31949,0.91538,0.48152,-0.87195,0.65829,-0.74442,0.75818,0.60649,-0.60927,-0.12005,0.10582,-0.87205,-0.91459,-0.62302,0.28843,-0.012767,-0.094485,0.24364,0.85355,0.34696
-0.95297,0.83074,0.89427,0.65623,-0.75171,-0.79804,0.8831,0.79662,-0.67131,-0.66562,0.86057,-0.98445,-0.47347,-0.10507,0.080138,-0.61035,-0.54862,-0.94599,-0.73951,0.99643,-0.57544,0.30158,-0.96235,0.43263,0.12325,-0.44432,-0.1184,-0.32231,0.19013,0.55507,-0.41591,0.52158,-0.33107,0.47153,-0.29922,-0.6279,-0.55411,0.59971,0.10006,0.61717,0.1229,-0.82682,0.37407,-0.12032,-0.34392,-0.71622,-0.70941,0.5985,0.76513,-0.26351
-0.65166,0.24105,-0.8331,0.61378,0.039181,-0.23592,-0.63775,-0.78084,-0.26486,0.4502,0.068695,-0.53977,-0.25914,0.50887,-0.43208,-0.20139,0.085283,0.53985,-0.18821,-0.49359,-0.14986,0.3009,-0.25218,0.3551,0.42896,-0.18847,0.83914,-0.46436,-0.3211,-0.2871,-0.65721,0.46003,0.35494,-0.34556,-0.91168,0.83818,-0.16269,0.54951,-0.67292,0.8153,0.9104,-0.42405,0.23348,-0.13297,-0.96595,0.041173,0.39377,0.052349,0.83477,0.43169
0.27271,0.28028,0.17059,-0.90816,-0.60595,-0.67514,0.070873,0.39372,-0.99356,-0.60788,-0.14328,-0.94462,0.80618,0.15854,0.74012,-0.74625,-0.41741,-0.56192,0.11663,0.72633,-0.85422,0.58653,0.67369,-0.75574,-0.46183,0.72481,0.5377,-0.97219,-0.12449,0.3098,-0.62099,0.26667,-0.51539,0.3245,0.057934,0.75038,-0.0039252,-0.6427,0.92109,0.49167,-0.27379,-0.56452,-0.66285,0.3539,-0.79504,-0.23663,-0.4626,0.10092,0.20474,-0.78321
0.30524,0.17169,-0.69469,-0.051922,-0.77045,-0.29541,0.62818,-0.58806,0.63545,0.21023,-0.60132,-0.51081,-0.94473,-0.7561,-0.18645,-0.48916,0.63217,-0.45875,0.5179,0.31482,0.55937,0.37499,0.11,-0.35377,-0.76237,-0.095864,-0.097728,-0.785,-0.85812,-0.90626,0.25114,-0.10408,0.3928,-0.54102,0.98061,0.24038,0.29342,-0.11361,-0.67806,0.24211,-0.78771,-0.70421,0.17356,0.40452,0.51681,-0.38038,-0.49975,0.8132,0.18129,0.65764
0.47446,0.92835,0.99707,0.31858,-0.22766,0.31228,0.59243,0.56443,-0.08391,0.72562,0.18122,0.24609,0.99975,0.5098,0.65833,-0.558,0.48559,-0.47903,-0.92133,0.85727,0.26667,0.40988,-0.97923,-0.060799,0.86452,0.49845,0.87465,0.30276,-0.64067,-0.91181,0.31678,-0.037388,-0.52927,-0.39058,-0.79411,-0.023691,0.84906,0.62591,0.0068978,-0.6978,-0.37472,0.15544,0.52622,0.013351,0.041095,-0.0291,-0.62137,0.013809,0.014386,0.6768
0.34272,0.2058,0.96402,0.32539,0.91932,-0.18884,0.53274,0.0991,-0.61212,-0.58981,-0.10187,0.71045,-0.26796,-0.22296,0.96221,-0.19352,0.95564,-0.66563,0.39379,-0.23712,-0.064258,-0.06945,0.54947,-0.60134,0.093229,0.19891,-0.41682,0.97061,0.94264,-0.92365,0.73792,-0.83393,0.21805,-0.68072,0.66209,0.30036,-0.31098,-0.27211,0.19681,-0.62411,-0.0049171,-0.64111,-0.34303,0.66896,0.66444,0.97012,0.54594,-0.92651,0.56592,-0.57368
-0.91435,0.55123,0.71817,0.65413,0.078508,0.55756,-0.80609,-0.61935,0.5903,-0.050572,-0.83796,0.10598,0.5319,0.92018,-0.77131,0.036304,0.11547,-0.99766,0.47106,0.1277,-0.59577,0.34792,0.75217,0.43881,0.24704,-0.34423,-0.57027,-0.26197,0.1066,0.17455,0.65177,-0.0054436,-0.0073223,-0.11936,0.75628,-0.27062,-0.81985,0.60937,0.64428,-0.091166,0.68775,-0.99633,-0.85352,-0.64449,0.12658,-0.862,0.42638,-0.31498,0.28375,-0.044056
0.98792,-0.39115,-0.10361,0.19969,0.37104,-0.7844,0.68049,-0.78066,-0.32243,0.73145,-0.27845,-0.11291,-0.19167,-0.8915,0.8478,0.80433,0.97843,0.5207,-0.40164,0.81239,-0.90755,-0.93677,0.51272,-0.95746,-0.91834,-0.23961,-0.048661,0.94947,-0.073346,0.33116,-0.93911,-0.57001,-0.41475,0.34414,0.58494,0.59445,-0.21983,0.62033,-0.22858,0.46026,0.042566,-0.99684,0.059905,-0.45051,0.23598,-0.62837,-0.30119,-0.44673,0.38153,0.58851
-0.40205,0.69191,-0.049239,0.10285,0.85323,0.9032,0.13212,0.10721,-0.80611,-0.53063,-0.47915,-0.49067,0.76409,0.7442,0.69193,-0.34974,-0.14478,0.9704,0.84461,-0.68616,-0.13516,0.64116,-0.4585,-0.52401,0.51446,0.97297,0.34329,-0.72402,-0.22792,0.93914,-0.50917,0.12324,-0.51285,-0.98506,0.59032,0.80021,-0.58321,0.72742,0.51294,0.60292,-0.047593,-0.00045991,-0.99732,0.26217,0.20828,0.7444,0.47839,-0.32525,0.77186,0.59711
0.61334,-0.9552,-0.12878,-0.2432,-0.51052,-0.58388,-0.51243,0.15675,0.80351,0.87587,-0.22402,0.97614,0.48505,0.66265,-0.81981,-0.16747,-0.89415,0.029002,0.17988,-0.43376,0.76066,-0.048436,0.88838,-0.89529,0.020342,0.58869,0.93843,0.51788,0.21623,-0.5992,0.57605,-0.52362,-0.77087,0.75624,-0.15773,0.37316,0.77831,-0.62529,0.44569,-0.94527,-0.57011,-0.43266,0.28586,-0.19568,-0.75119,0.97711,-0.83268,-0.92738,-0.49284,-0.55493
-0.63537,0.71569,0.82918,-0.85063,-0.79964,0.9506,0.90387,-0.45887,0.57077,-0.31532,0.0075635,-0.022041,-0.45009,0.69736,-0.98948,0.41579,-0.69896,0.13739,-0.77424,0.08292,-0.30763,0.060987,-0.93271,0.332,0.15314,-0.14001,0.35746,0.51535,-0.053065,-0.33294,-0.20384,-0.22536,-0.08403,-0.80978,0.26747,0.21983,0.95287,0.12947,0.95141,-0.46038,-0.66103,0.041463,-0.30285,0.35723,0.86708,-0.02925,-0.099886,-0.17376,-0.74476,0.83722
-0.055914,0.72417,-0.91553,-0.87602,-0.14706,0.008762,0.22418,0.61567,0.98962,-0.84033,0.58109,0.48117,0.84775,-0.41925,-0.43973,0.69853,-0.17311,-0.82647,-0.2265,0.020108,0.051116,0.11024,-0.64395,0.41469,0.53519,0.68799,0.78765,-0.093602,0.39233,0.10289,-0.80086,0.59482,-0.61979,-0.205,0.91967,0.47274,0.66259,-0.012812,0.31451,-0.061079,0.89246,0.87091,-0.48131,0.83144,0.54573,0.48574,-0.39841,0.54411,-0.2864,-0.47145
0.023643,-0.034512,-0.77581,0.49171,0.13096,0.014256,0.44222,0.25835,0.8686,0.70589,-0.2076,0.033948,0.5162,0.78104,-0.25788,-0.59911,-0.74807,-0.37453,-0.038212,0.30538,-0.50658,-0.36621,-0.40547,-0.84925,0.88201,-0.32506,0.13333,-0.4136,0.35564,0.37252,-0.2975,-0.99482,-0.89832,0.3685,0.031868,0.53598,-0.13042,0.24502,0.3686,-0.34618,0.58166,-0.4104,-0.8258,-0.10636,0.61344,0.5178,-0.16924,0.037042,0.18434,-0.94622
0.85687,0.40506,-0.5961,0.55398,-0.11888,0.70663,0.6987,0.37249,0.10823,0.5836,0.94852,-0.86314,0.60952,0.087739,-0.033089,0.69563,-0.09167,0.35794,0.90804,0.090004,-0.078979,0.21104,-0.54738,-0.83789,-0.37487,-0.82602,-0.056183,0.22126,0.33505,0.73799,0.54929,-0.24314,-0.77577,-0.69332,-0.71716,0.56104,0.57698,0.61989,0.46912,0.94397,-0.11037,-0.76436,0.25267,0.46539,-0.72787,0.288,-0.81809,0.92706,0.77048,0.049481
0.10709,0.55243,0.79381,-0.5809,-0.15548,-0.91558,-0.95635,0.85904,-0.48361,0.15528,-0.3015,-0.49257,-0.33341,0.75968,0.46003,-0.078184,-0.13681,0.05471,-0.66838,0.70901,0.75699,0.071723,-0.6406,-0.38888,0.14967,0.36808,-0.50473,-0.38418,0.47466,-0.75197,0.30878,-0.75087,0.7628,0.55733,-0.47061,0.74858,-0.19857,0.49375,-0.50576,-0.88286,-0.65564,0.5364,0.28438,-0.42447,0.44942,0.078341,0.60644,0.42759,0.59576,-0.87065
0.039771,-0.86521,-0.80226,-0.92241,0.56108,-0.45612,-0.84024,-0.58146,0.0056618,-0.68181,-0.30089,0.2165,-0.85224,-0.25191,0.13843,-0.82731,-0.42826,-0.69336,-0.058698,-0.88352,0.032015,0.26344,-0.16947,0.68507,-0.78186,-0.9754,-0.4563,0.25008,-0.63056,-0.71237,-0.96373,0.89001,0.96911,-0.75392,-0.84469,-0.16329,0.56456,-0.1608,0.98055,-0.98468,-0.04652,0.19758,-0.34607,0.50173,-0.6209,-0.23469,-0.28841,-0.54734,0.80814,-0.14072
-0.22548,-0.63944,-0.65932,0.2707,0.8699,0.33446,0.63468,-0.15792,-0.070846,0.46325,0.58694,-0.96573,-0.35582,0.46328,0.28565,0.92803,-0.39238,-0.073372,-0.52698,0.99314,0.75717,-0.47688,-0.77453,0.1039,0.6794,0.29276,0.10308,-0.7508,-0.40418,-0.83501,-0.69618,0.47962,0.79821,-0.42027,-0.59983,-0.21867,0.77823,-0.17324,0.89057,-0.82183,0.82425,-0.01764,-0.89366,-0.17618,-0.17939,0.2383,0.50507,0.16374,-0.24378,0.047678
-0.61573,-0.02339,-0.31571,0.16596,-0.26675,0.91301,0.3164,-0.12986,-0.67919,0.26883,-0.84608,0.79454,-0.99414,0.081098,-0.28743,-0.60006,-0.37993,-0.5633,-0.65413,0.26732,-0.73127,0.98198,0.49608,0.14605,-0.88112,-0.28122,-0.9401,0.98766,-0.36523,0.091541,0.44962,-0.89279,0.2005,0.30388,0.029483,0.7398,-0.34417,0.15462,0.10723,0.5718,-0.21573,-0.23577,0.4722,-0.95287,-0.42773,0.64298,0.52855,0.04661,0.60517,-0.84795
-0.12856,0.7129,-0.08074,0.89956,-0.25597,0.955,0.25008,-0.62901,0.79059,0.57795,-0.52082,0.12168,0.77608,0.50764,0.47997,-0.36163,-0.55833,-0.15348,0.2084,-0.17159,0.40698,-0.75269,-0.3312,-0.28224,-0.80412,-0.35091,-0.58072,-0.26469,0.70621,-0.58454,-0.33142,0.18162,0.7756,0.88292,0.41341,-0.9189,-0.98072,-0.073361,0.85071,-0.70606,-0.27232,-0.4465,0.99777,-0.53037,0.53472,0.61373,-0.48922,0.45351,-0.87311,-0.14667
-0.5034,0.93826,0.39026,0.64474,0.51665,0.24153,-0.4349,0.47218,-0.5206,0.28418,-0.40796,0.82997,-0.2808,-0.89268,-0.67022,0.47715,-0.48825,-0.40868,0.24453,0.22738,-0.50592,-0.76351,0.56569,0.19511,0.47725,-0.1486,0.8234,0.19095,0.72743,-0.53532,-0.19844,0.59961,0.8107,0.32214,0.49572,0.7903,-0.69998,0.18041,0.69204,-0.2856,-0.66865,-0.47411,0.15938,-0.88161,0.90603,0.32157,0.61013,-0.15475,-0.82089,-0.11662
-0.10136,0.85116,-0.22401,0.26575,-0.83691,0.53279,0.79569,-0.47936,0.36949,0.65328,0.97837,-0.95673,-0.70264,-0.88538,0.79921,-0.94051,0.058437,-0.75746,0.42576,0.99477,-0.63762,-0.046105,-0.7358,0.32202,-0.17582,-0.50466,0.8082,0.92994,-0.13859,0.12642,0.46336,-0.76148,0.52535,0.32616,0.76837,0.97351,0.43942,-0.27013,-0.88317,-0.33536,0.1474,0.48089,0.18006,-0.22226,0.12628,-0.60843,-0.18767,-0.38444,-0.93018,0.88637
0.8516,0.57999,0.73651,0.96745,0.628,-0.38831,0.11895,0.81383,0.12069,-0.92162,-0.088715,0.52284,-0.20376,-0.39024,-0.55068,0.35856,-0.2093,0.27826,0.91541,0.26184,-0.47344,0.87299,0.010541,-0.83479,0.7754,0.65859,-0.055477,-0.87552,0.95104,0.55163,-0.18983,-0.70453,0.46886,0.40697,0.0073623,-0.85538,-0.029722,0.072019,0.085063,0.58391,-0.30889,0.7969,0.67651,-0.087121,-0.46383,-0.061662,-0.67396,-0.91055,-0.34167,-0.64428
-0.29402,-0.21842,-0.29801,-0.10098,0.58055,-0.19498,0.96289,-0.15229,0.75556,0.55156,0.29018,0.53005,-0.70408,-0.032013,0.63108,0.70349,0.64432,0.40161,0.22159,-0.017533,0.90623,-0.73317,-0.28025,0.57948,-0.7304,0.48388,-0.75145,0.13834,0.53308,-0.75271,0.60097,-0.46423,0.053515,0.24604,-0.17146,-0.34359,0.0677,-0.85029,-0.21629,0.67467,-0.88144,0.8215,-0.11139,-0.58563,0.97054,-0.65305,-0.68044,0.30103,-0.073182,0.17839
0.98913,-0.65295,0.4643,0.89724,-0.55592,0.069061,-0.074182,-0.60051,-0.32403,0.66142,0.9127,-0.42317,-0.87662,-0.90628,0.22553,-0.61532,0.95973,-0.62188,-0.55191,-0.87197,0.91048,-0.85662,0.57629,-0.66358,-0.39878,-0.46882,-0.84279,0.93594,-0.29985,-0.56453,-0.48792,0.51967,0.41284,-0.69149,0.44748,0.11071,0.74603,-0.28446,0.34215,0.34251,-0.95807,-0.068927,0.35212,0.079803,0.05047,-0.012381,-0.16616,0.37822,-0.75786,0.37705
0.55772,-0.3751,-0.98048,-0.043995,0.046235,0.86686,0.58265,-0.24231,-0.82937,-0.28423,0.32105,0.014827,-0.99683,-0.77464,-0.22634,-0.92228,-0.35089,0.28777,-0.45802,0.66572,0.92484,0.92931,0.35026,0.012728,0.74218,0.047753,-0.053123,0.43616,-0.31434,0.66674,-0.46185,0.5007,-0.38882,0.47384,0.56727,-0.58529,-0.84198,0.25844,0.94931,0.084083,0.21813,0.50191,-0.55507,-0.27232,0.068217,-0.60673,0.23818,0.93707,0.82944,-0.32275
0.76127,-0.72651,-0.071867,-0.076926,-0.36347,-0.59271,-0.32168,0.087164,0.46489,-0.69457,0.37251,0.057428,0.18863,0.86068,-0.18172,-0.62074,-0.45184,-0.11839,-0.11135,-0.22189,-0.33791,0.916,0.48249,-0.035768,0.28542,0.38827,-0.96532,0.39826,0.043452,-0.31821,-0.72027,0.38567,0.29903,0.42009,-0.38047,0.22179,-0.98599,0.0033453,-0.56912,0.98292,0.99463,0.22734,-0.39011,-0.69737,-0.12465,0.10015,-0.058967,-0.23332,0.6865,-0.28727
0.19837,0.065078,0.86382,-0.89942,0.085117,0.23715,-0.57363,0.58589,-0.99011,-0.94168,-0.076697,0.98984,-0.75973,0.26662,0.94985,0.019972,0.23959,-0.78794,-0.90552,0.45657,-0.89945,-0.6483,0.61567,0.79847,0.56025,-0.43339,0.31605,0.91853,0.4105,-0.45852,0.14604,0.099024,-0.29562,0.52454,0.76634,0.96183,0.27807,0.19433,-0.44762,-0.69525,-0.66849,0.23856,-0.99851,0.0097577,-0.35564,-0.35881,0.12516,0.26439,-0.92246,-0.081143
-0.79796,-0.29401,0.49959,-0.8423,0.38693,0.42696,0.14641,0.38964,-0.32104,-0.80476,0.27163,0.4981,-0.95479,0.1214,-0.40324,0.42889,-0.80694,0.46465,-0.69136,-0.68116,0.57841,-0.99081,0.79452,0.4064,0.099941,0.74262,0.50409,0.4034,0.54428,0.78177,0.18289,0.10062,0.30053,0.37676,0.66932,0.92832,0.68337,0.2477,0.95378,0.36939,0.33724,0.2153,-0.47997,-0.66764,0.0031114,-0.32584,-0.12482,-0.84555,0.56843,0.73213
0.8531,0.94435,0.57326,0.51519,-0.90422,-0.90555,-0.92984,0.082606,-0.12025,-0.38887,-0.88304,0.74044,0.16874,-0.66578,-0.98815,0.15747,0.40897,-0.65784,-0.85935,-0.083125,-0.79599,-0.37829,-0.25074,-0.76271,-0.28706,0.61573,-0.73333,-0.69739,0.9404,0.79166,-0.43021,-0.53756,-0.59714,-0.029951,-0.18259,-0.36691,0.33966,0.55502,-0.44796,0.79804,0.6963,-0.30668,0.11339,0.38096,-0.677,-0.047628,-0.75643,0.9336,-0.42231,-0.0928
-0.42931,0.61098,0.16427,0.29475,0.91608,0.1808,-0.29743,-0.070477,-0.65172,0.94124,0.76593,0.58497,-0.10343,0.15378,-0.27786,-0.3087,-0.90143,-0.60011,0.84062,0.32084,-0.76598,-0.66663,0.64451,-0.38236,0.0052597,0.37191,-0.72765,-0.11127,-0.99654,0.73152,-0.24669,0.11795,0.18241,-0.11058,0.54784,0.95883,-0.5945,0.076629,-0.032033,-0.098672,-0.069312,0.095172,0.52407,0.47881,-0.95776,-0.92473,-0.65241,0.96853,0.50031,-0.55742
-0.39251,0.27441,0.98599,0.17279,0.93373,0.21703,0.39171,0.062365,-0.1018,0.72304,-0.20729,0.46489,0.83791,-0.8345,0.54861,-0.67613,0.18726,0.47525,-0.71439,0.55874,0.79217,-0.10946,0.54506,0.37075,-0.1127,-0.78628,0.54675,0.17225,0.65781,0.054665,-0.20403,-0.91988,-0.10468,0.4966,-0.18819,-0.48897,0.32738,-0.8183,0.55136,0.78529,-0.64318,-0.7357,-0.85173,-0.5611,0.17087,-0.13336,0.31683,0.57604,-0.55314,0.58472
-0.12241,-0.97643,0.72121,0.91393,-0.74936,-0.63588,-0.93341,-0.47387,0.59195,-0.89759,0.94285,-0.3723,-0.31769,-0.45206,-0.10841,0.35747,0.44053,0.43089,-0.27698,-0.60117,-0.31468,-0.90273,0.16297,-0.003893,0.057369,-0.13105,-0.8946,-0.44543,0.45518,-0.07673,0.48916,0.069369,-0.3679,0.5954,-0.66005,-0.10739,-0.44573,-0.50073,-0.42067,-0.53412,-0.088879,0.53376,-0.66139,0.44707,-0.45237,-0.9744,0.5942,0.21965,0.18831,0.56802
0.78432,-0.18762,-0.92841,-0.61862,-0.27029,-0.026625,0.46977,-0.14422,-0.82424,-0.24945,0.29437,0.32109,-0.95809,-0.43055,0.19831,0.75567,0.79741,-0.6542,0.78948,-0.081613,-0.11868,0.95874,-0.044803,0.31269,0.30088,0.29883,-0.22638,-0.72759,0.82055,0.094165,-0.13785,-0.53863,0.36053,0.9705,-0.046648,0.87532,-0.59112,0.42042,0.70397,0.68145,-0.27629,0.3074,-0.74321,0.87868,0.20664,-0.35215,0.077383,0.50071,-0.6466,0.04433
0.15698,0.49894,-0.41969,-0.97668,-0.27544,-0.49469,-0.36523,0.15943,-0.17158,-0.63281,-0.30607,-0.96592,-0.41036,-0.78104,-0.9693,-0.49342,-0.59192,-0.60791,0.32051,0.88109,-0.96716,0.041799,0.37542,0.81597,0.85632,-0.47944,-0.52428,0.40448,-0.046715,0.61161,0.79057,-0.57393,-0.67009,-0.16917,0.47076,-0.3355,0.04264,0.38205,0.89152,-0.89016,-0.11209,0.09232,0.065243,-0.55392,0.31341,0.14713,-0.64205,0.19579,-0.84232,0.30685
-0.39173,-0.031362,-0.90964,0.46788,0.5051,-0.85342,-0.4307,0.54419,0.16004,0.53331,-0.40442,-0.28459,-0.27667,-0.65073,0.44912,0.27434,0.27861,0.69431,0.25249,0.73733,0.56865,-0.010001,0.90363,-0.49697,-0.99563,0.64773,0.91902,-0.75889,0.29046,-0.4468,0.00056733,0.76821,0.40961,0.030058,-0.24027,0.039456,-0.74385,-0.55237,0.19127,0.48874,-0.071803,0.60875,0.56678,0.63823,-0.58402,0.010121,0.96659,-0.56941,-0.60302,-0.82542
-0.94681,0.49636,0.26204,0.29192,0.68878,0.18302,-0.83198,-0.38851,0.81468,-0.97488,0.78125,0.12906,0.57423,-0.20834,-0.47356,0.11235,-0.91102,0.77778,0.9149,0.88062,0.31616,0.77296,0.82461,0.2355,-0.17087,0.034161,-0.20192,-0.44683,-0.25578,-0.7366,0.81607,0.91028,0.80845,0.328,-0.68315,0.2229,-0.13796,-0.68969,0.32843,0.26826,-0.2607,-0.76924,-0.94319,0.64671,0.91947,-0.95738,-0.78667,-0.71603,0.3401,-0.56404
0.72187,0.54381,0.31734,-0.66219,-0.45323,0.65723,-0.59805,-0.73141,-0.97947,0.60499,0.16281,0.39024,-0.77191,-0.29726,-0.45841,-0.84294,0.98698,-0.48923,0.13916,0.14507,-0.97226,0.59254,0.61489,-0.42495,0.4946,0.99865,0.55907,0.9815,-0.15395,0.51537,-0.99004,-0.28677,-0.04356,0.71467,-0.10389,-0.32204,0.54468,0.30531,-0.46183,-0.55219,-0.75855,-0.73919,0.77706,0.49456,-0.099018,0.93406,0.76214,0.27811,0.71144,0.44553
0.86643,0.36523,0.082987,-0.85038,0.80537,-0.40912,-0.22881,0.73939,0.53775,0.85683,-0.6925,-0.046985,-0.29516,-0.3902,0.25265,0.16515,-0.90117,0.76944,-0.42754,0.77799,-0.12146,-0.46085,0.42601,-0.53642,0.61548,-0.6625,-0.11339,-0.77658,0.62751,-0.76602,-0.51258,-0.81398,-0.98715,-0.92451,0.24986,0.18329,-0.11016,0.47686,-0.90818,0.94328,-0.6863,0.56904,-0.95855,0.62058,-0.82362,-0.14147,-0.9938,0.34036,-0.034231,-0.25286
0.15607,-0.71772,-0.95566,-0.070672,-0.92833,-0.53478,-0.18231,0.7855,0.26565,0.66723,-0.97521,0.52906,-0.6494,-0.98175,0.13819,0.12984,0.19697,-0.48483,-0.6986,0.46297,-0.72923,0.89528,-0.41153,-0.34837,-0.15429,-0.69709,0.92256,-0.31748,-0.71875,0.53885,0.51708,0.48784,-0.3292,-0.773,0.46448,-0.55368,-0.086871,0.0073098,0.73894,0.42248,0.82115,0.71872,0.098977,0.87009,0.87274,-0.72453,0.31618,0.9122,-0.55194,-0.62514
-0.3121,0.46108,-0.48126,-0.97209,-0.067155,-0.89553,-0.97394,0.83981,0.51368,-0.8166,0.9279,0.45262,0.64173,0.58666,-0.72948,0.83289,-0.40708,-0.12533,0.94769,0.45653,-0.65172,0.34044,0.58287,0.067976,0.49473,-0.9548,-0.07908,0.33244,-0.51319,0.8284,-0.17921,-0.92175,-0.29782,0.39419,-0.61642,-0.30244,0.11153,-0.82182,-0.5162,-0.84369,-0.55032,-0.70683,-0.61698,-0.83618,0.93712,-0.82467,-0.021766,-0.92078,-0.10548,0.24485
-0.51703,0.10601,-0.57276,0.5865,0.18722,-0.79225,0.83174,-0.269,0.43786,0.50638,0.0279,-0.28214,0.72898,0.18592,0.78182,-0.74282,-0.97873,0.80195,0.30255,-0.2211,-0.043745,0.61226,-0.53925,0.37628,0.28647,0.13884,-0.4493,0.32119,0.93042,0.94931,-0.8299,-0.27423,0.29079,0.50585,-0.25151,0.60464,0.73558,-0.2296,0.32683,0.43889,0.31229,0.3087,0.073849,0.83418,0.50201,0.35528,-0.81404,-0.63967,0.26933,-0.20456
-0.67297,0.036736,-0.3856,0.27893,0.30784,0.50597,0.90581,-0.31859,0.35833,-0.051942,0.75892,-0.37883,0.82104,-0.14414,0.164,-0.13269,0.57832,0.06618,0.090317,0.66534,0.79558,0.74124,0.80594,-0.23834,0.85723,0.59465,-0.51133,0.77109,-0.41957,0.12408,-0.42162,-0.60461,0.7687,-0.58019,-0.42426,-0.2164,0.15893,0.3265,0.74381,-0.17378,0.76929,0.037226,-0.21598,0.8514,0.47656,0.34437,-0.27221,0.9413,0.10613,0.76922
0.30228,0.55654,0.0029697,-0.53451,0.27483,0.45017,-0.32851,0.84176,-0.0096598,-0.42903,0.95424,0.39183,0.44531,0.29604,-0.51342,0.055178,-0.21609,0.52621,0.16081,-0.18237,0.37304,-0.77494,-0.32067,0.50584,0.66308,-0.90335,0.32651,-0.47728,-0.64207,-0.45969,-0.36037,-0.99231,-0.44715,-0.15603,0.1758,0.2833,-0.22371,0.16593,-0.68324,0.8892,-0.33331,-0.98916,-0.82743,0.44201,-0.25066,-0.61093,0.58378,0.65297,0.47784,-0.93859
-0.5721,-0.51221,0.40773,-0.32013,-0.024359,-0.13833,0.0014852,0.99422,0.49431,-0.14337,-0.72225,-0.17922,0.1063,0.78901,0.68612,0.37493,-0.93223,-0.73764,0.80572,-0.74437,-0.81661,0.76761,-0.71684,0.91068,0.071646,-0.45587,-0.39822,0.54614,-0.96446,0.23567,-0.96206,0.35817,0.37147,-0.18844,0.0057905,-0.21441,0.32965,0.45169,0.23355,-0.6746,-0.080843,0.39282,-0.17862,-0.71782,0.93061,0.35711,-0.21732,-0.88874,-0.46024,-0.18352
-0.24557,0.20419,0.62717,-0.46051,0.13271,-0.75894,-0.88014,0.91843,0.55233,-0.15386,-0.64698,0.89627,-0.21484,-0.49128,-0.7928,0.2277,-0.76114,0.86899,-0.60506,0.84573,0.19816,0.55871,0.47172,0.67513,-0.53833,-0.29723,-0.24117,0.74314,0.51355,-0.067826,-0.14419,-0.84196,0.078689,-0.63723,-0.24659,-0.71117,-0.65823,-0.39868,0.57142,-0.14192,0.70333,0.52808,-0.47991,-0.34028,-0.1837,-0.16228,-0.089388,-0.97017,0.25211,-0.22891
0.42063,-0.69432,0.55831,-0.48301,0.58601,-0.19951,-0.85636,-0.79788,-0.56498,-0.055474,-0.71213,-0.8508,0.17887,-0.21219,0.030755,0.36335,-0.87687,0.0052033,-0.62948,-0.024312,-0.34635,0.30796,-0.84976,0.62558,-0.4845,0.34784,-0.61659,-0.09216,-0.47834,-0.73645,-0.20244,-0.32419,-0.91452,-0.1409,0.95316,-0.22349,-0.85752,0.95285,0.28131,-0.91635,0.76942,0.0096553,-0.61505,0.2946,-0.78384,0.8833,0.61621,0.98323,0.36045,0.11318
0.14286,0.13238,-0.65078,-0.077309,0.67503,-0.014015,-0.81241,-0.25376,0.21494,0.1816,-0.49506,-0.61667,-0.3115,0.079919,-0.11312,0.65142,0.70432,0.49266,-0.31921,-0.17743,0.43031,-0.68203,0.14014,0.74717,-0.93468,0.79314,0.96399,0.64879,-0.025005,-0.16538,0.58398,-0.46793,-0.39036,0.23487,-0.72197,0.96313,0.30205,-0.99649,-0.33108,0.63999,0.10495,0.82,-0.29294,-0.80999,-0.23589,0.60724,-0.65649,0.48108,-0.74132,0.73775
0.22219,0.10877,0.34482,-0.59299,0.44442,-0.013581,0.74731,0.22652,0.55546,0.1354,-0.64666,0.23856,-0.10854,0.77346,0.23707,0.015943,-0.32794,-0.5692,-0.12788,-0.79664,0.047973,0.87022,0.20736,0.3406,0.61947,-0.28575,-0.90317,-0.60233,0.91553,0.38767,-0.30154,0.58567,-0.34646,0.88128,0.0014252,0.85899,-0.16283,0.93488,0.010321,-0.32647,0.62368,-0.69453,-0.68646,0.27845,-0.13002,0.60859,-0.14325,0.34016,0.61197,-0.3863
-0.2586,-0.70536,0.80287,0.99408,-0.55224,-0.35397,0.45056,0.51899,-0.027294,-0.31372,-0.5899,-0.57683,-0.34377,-0.49413,0.72518,-0.70135,0.45426,-0.64946,0.74318,-0.47807,0.14863,-0.50844,-0.69656,-0.81713,0.36192,0.91544,-0.42544,0.63598,0.070918,0.78569,-0.21068,-0.55186,0.91513,0.34419,0.33715,0.38927,-0.1716,-0.69202,-0.48465,-0.93364,0.41426,-0.55564,0.10747,0.23114,-0.604,0.27642,0.40628,0.58428,-0.52696,-0.11769
-0.81954,0.21067,-0.022406,-0.31456,-0.84104,-0.66231,-0.091457,0.25792,0.88772,-0.16849,-0.49023,0.13145,0.90717,0.57993,0.5944,0.80777,-0.29647,0.41965,-0.92953,-0.356,0.082116,0.26771,0.156,-0.94301,-0.41722,0.99695,0.89513,-0.99419,-0.78233,-0.92176,-0.8367,0.46103,0.087645,-0.67219,0.7057,0.060958,0.45305,0.18958,-0.23639,-0.16539,-0.15238,-0.98144,-0.59445,-0.40014,0.67078,0.13907,-0.58566,-0.6184,0.94106,0.63694
0.872,0.45018,0.99946,0.74982,0.29911,0.90207,0.14703,0.82483,0.14817,0.93188,-0.06202,0.92897,0.95057,0.8514,-0.40473,0.91681,-0.76895,0.83846,0.99495,0.94296,-0.3711,-0.47471,0.97795,0.60249,0.0065851,-0.020518,0.23818,0.35697,0.3881,0.98557,0.59772,0.1751,-0.70565,-0.54864,0.89086,0.37773,-0.23022,-0.75592,0.30361,-0.44373,-0.8574,0.62148,-0.4738,-0.90946,0.22999,-0.042011,0.65397,0.41153,-0.29222,-0.63071
0.6753,0.89958,0.27741,0.90282,0.40203,0.065665,-0.87917,-0.9327,-0.93572,0.58338,0.4096,-0.19673,-0.27356,-0.31398,-0.49587,0.025692,-0.016671,-0.89881,-0.18352,0.93,0.99063,-0.00019249,-0.7692,-0.014854,0.69725,0.048826,-0.20441,0.65173,-0.36127,0.93265,-0.043795,0.62003,-0.30247,0.33146,0.67248,-0.86212,-0.3453,-0.98701,-0.96955,0.92094,-0.76763,0.86876,-0.99591,-0.51253,-0.72286,0.87092,0.84786,-0.95,-0.73654,0.93084
0.84578,0.63238,0.61013,-0.74005,0.039959,0.47874,-0.84004,0.70465,0.4303,0.98982,-0.49468,0.57031,-0.57387,-0.57871,-0.97272,0.36528,0.44175,0.48239,0.62316,-0.96944,-0.7615,0.63081,-0.90325,0.9252,-0.037019,0.391,-0.62263,0.42535,-0.24787,0.40553,-0.91307,-0.2782,-0.30178,0.75072,0.032348,0.94091,0.14793,-0.58324,-0.77974,-0.024248,-0.19273,-0.8291,0.63113,-0.89359,-0.08755,0.54799,0.63724,0.91162,0.37681,-0.85352
-0.31075,-0.14228,-0.74717,-0.15103,0.7014,0.019597,-0.16551,-0.98345,0.38235,-0.95254,-0.37508,-0.1358,0.20382,-0.24234,-0.43132,0.73917,-0.62339,0.62428,0.89809,-0.97119,-0.786,0.83711,-0.96714,-0.32981,-0.2792,0.33367,-0.74949,-0.22166,-0.5572,0.31695,0.4063,-0.71994,0.32731,0.74381,0.91136,0.6129,-0.0061507,0.059567,-0.39718,-0.90356,-0.958,0.29681,-0.77353,-0.53379,0.6145,0.48308,-0.81767,-0.26503,-0.65327,0.42374
-0.3081,-0.20841,0.87831,-0.5654,0.85595,0.74748,0.3921,-0.9124,0.76532,-0.89924,-0.29916,0.47888,0.8092,-0.4307,-0.2228,-0.4881,-0.42824,-0.55467,-0.9261,0.029508,0.5551,-0.675,-0.37869,0.79741,0.081223,0.2063,0.41359,-0.97659,-0.21032,0.17612,0.85566,0.37452,-0.27187,0.82621,0.27001,0.59312,-0.69692,-0.14301,-0.41233,0.04671,-0.42607,-0.78986,-0.67317,0.35492,-0.10946,-0.50302,0.52702,-0.9877,-0.0096118,-0.080455
-0.39883,-0.31931,-0.23254,-0.36437,-0.84325,0.1851,-0.2689,-0.59994,-0.61724,-0.026,0.25427,-0.76525,0.71341,0.35975,0.75938,0.50151,0.73224,0.364,-0.1956,-0.42192,-0.37516,-0.015531,0.21235,-0.93499,-0.18384,-0.22069,0.45158,-0.58581,0.79715,0.97454,-0.067252,-0.068549,0.99301,0.32239,-0.48773,0.88212,-0.46668,0.67821,0.39437,0.7962,0.35141,0.27025,0.15166,-0.37606,-0.29925,-0.37174,-0.25332,0.039851,0.018317,-0.23917
0.38865,0.14078,0.30518,-0.98748,-0.25043,0.16781,-0.1355,0.65589,0.81049,0.57492,-0.87859,-0.0032793,-0.83652,-0.73535,0.61967,0.93538,0.65186,-0.72565,-0.79422,-0.45158,0.9177,0.9946,0.90717,0.3427,-0.85198,-0.2331,0.94802,-0.70366,0.84732,0.64851,0.32522,0.062136,-0.25369,-0.66378,0.57144,0.86522,-0.53425,0.4806,-0.90895,0.97514,0.10991,-0.41661,0.055962,-0.93285,0.64626,-0.30208,0.038893,-0.88929,0.58295,0.52153
0.51645,-0.75459,-0.58016,0.18428,-0.64803,0.97944,-0.37762,-0.26307,-0.86464,-0.56611,0.5083,-0.35652,-0.56871,-0.70193,0.97403,0.3848,0.79063,-0.58232,0.59434,-0.86036,-0.52049,0.2471,-0.51801,-0.085488,0.44029,0.40672,-0.09967,0.21231,0.15274,-0.4302,0.77151,0.11621,-0.28001,0.11304,-0.81249,0.69411,-0.027535,-0.097324,-0.065544,-0.65045,-0.2824,0.76844,0.53937,0.51256,0.60554,0.67837,0.90618,0.68369,0.24178,-0.073051
-0.77495,0.64812,-0.75769,0.012984,-0.76393,-0.59529,-0.78796,-0.073575,-0.85044,-0.40436,0.059978,-0.83258,-0.81614,0.68956,0.82074,0.57564,-0.68358,-0.72784,-0.9586,-0.85044,0.13742,-0.12262,0.14773,0.22499,-0.21537,-0.22989,0.86658,0.83537,-0.87292,-0.4339,-0.64943,0.25092,0.37714,0.62993,0.34848,-0.89598,0.23516,-0.49531,-0.096772,-0.046695,-0.97456,-0.30533,0.274,-0.69514,-0.62778,0.5158,0.24235,0.43733,0.78322,-0.82034
0.57515,0.95737,-0.50053,0.2091,0.2036,-0.031512,0.29308,-0.89916,-0.1654,0.95675,0.46798,-0.088887,-0.016548,0.86259,-0.27991,0.40565,0.31853,0.49056,0.33392,0.72831,-0.99966,-0.32073,-0.013641,0.29109,0.25071,0.74244,0.022316,0.30614,-0.54321,0.73003,0.59967,0.79083,-0.22567,0.88335,0.19647,-0.82542,-0.1327,0.67594,0.032697,0.29918,0.41386,0.46713,-0.41107,0.84785,-0.082264,-0.093388,0.036477,0.84162,0.30658,-0.40253
-0.45709,0.43066,-0.73091,0.75736,0.45637,-0.90153,0.595,-0.34502,0.39602,-0.40782,-0.068067,-0.5058,-0.93056,0.7162,0.5441,0.82456,-0.038638,-0.9501,-0.035004,0.5786,0.6627,-0.44504,-0.023733,0.31314,-0.029169,-0.94283,0.21902,-0.48104,0.19184,-0.0054072,0.10959,-0.8149,-0.63654,-0.95222,-0.64253,0.97998,0.70626,-0.4014,-0.18169,-0.69616,0.63904,0.99763,0.52653,-0.29564,0.52217,-0.59328,-0.02469,0.90452,0.37644,-0.78565
0.036876,0.42335,-0.69708,0.27825,0.079507,-0.21863,0.20884,-0.81224,-0.82893,-0.93118,0.99693,-0.93125,-0.1262,0.20141,0.81457,-0.50646,0.238,0.34509,0.1796,-0.2886,-0.61994,-0.88516,-0.68727,-0.77941,-0.29978,-0.96459,0.30092,0.75839,0.44196,-0.20717,0.57371,0.47856,0.82844,0.58129,0.070107,0.87224,-0.7033,-0.06203,0.44178,-0.0085471,-0.90067,-0.80819,-0.56705,0.48498,-0.29796,-0.98001,0.11383,-0.79248,0.14587,-0.31129
-0.42793,-0.52978,-0.033883,0.83468,0.47478,-0.34892,-0.97205,-0.1298,-0.77465,-0.35146,0.86952,-0.62373,-0.065476,0.10454,-0.4072,-0.17649,0.021399,-0.20283,-0.55652,-0.90227,-0.61373,0.58697,-0.59005,0.88134,0.0038789,-0.34057,-0.67042,0.34371,0.82891,0.18741,0.94389,0.77564,0.72754,0.28892,0.49312,0.38994,0.87306,0.83079,0.43444,-0.45934,-0.26496,-0.1038,0.76068,0.94524,-0.82717,0.13495,0.82071,-0.61163,-0.58041,-0.087213
-0.72795,0.40891,-0.066933,-0.41222,0.96121,0.29795,-0.16526,0.85474,0.69232,-0.26714,0.018582,0.35854,0.97152,0.019817,0.59239,-0.15611,-0.96997,-0.13938,0.66356,-0.31224,-0.70285,0.0019577,-0.060481,0.99283,-0.24817,0.35792,0.25935,-0.18627,-0.076997,0.28221,-0.7536,-0.97743,0.87569,-0.21464,-0.56736,0.53879,-0.32689,0.89296,-0.74232,0.1576,-0.98933,-0.44498,-0.69267,0.088187,-0.18856,0.10513,-0.16281,-0.88411,0.69967,-0.32176
0.24496,-0.89155,0.47301,0.33514,-0.44681,-0.2383,0.9349,0.49197,-0.23213,0.17121,0.015726,0.0695,0.95259,-0.96909,-0.020393,-0.64783,0.89049,0.57313,-0.037057,-0.617,-0.89465,0.81206,-0.19277,0.29733,0.21403,0.93565,0.76641,0.19037,-0.66839,-0.082739,-0.82219,0.57333,0.24307,-0.92066,0.18517,0.07487,0.035408,-0.19679,0.2445,0.81976,0.78785,0.436,0.34226,-0.30987,0.058296,0.54742,0.83687,0.086706,-0.96558,-0.42913
-0.062913,0.29333,0.17448,0.2306,0.40302,0.37467,-0.32681,-0.057186,-0.45717,-0.6593,0.55966,0.66273,-0.50267,-0.52789,-0.82243,-0.7686,-0.19567,0.82365,0.10639,0.36237,-0.45036,0.45314,-0.14215,-0.13528,-0.71716,0.59461,0.87326,-0.37047,-0.31023,-0.087026,0.15838,-0.4622,-0.48452,-0.15734,0.27023,0.54012,0.9383,0.2939,-0.79444,0.60272,0.67715,-0.81288,-0.4591,0.61795,0.53824,0.28041,-0.63984,0.19186,-0.061573,-0.23648
0.064987,-0.65659,-0.33737,-0.21166,0.16197,-0.36277,-0.094702,-0.53241,-0.03016,-0.87783,-0.49558,-0.4495,0.21036,-0.8127,-0.12438,0.68244,-0.23109,0.94404,-0.28547,0.45579,0.98911,0.38304,0.51565,-0.9355,0.1997,0.16727,-0.53858,0.09865,0.62301,0.82435,0.76166,0.96604,-0.956,-0.28785,-0.16513,0.72952,-0.33948,0.2951,0.65103,-0.3098,-0.92227,-0.88475,-0.84666,-0.32119,0.07579,0.4514,0.88158,-0.77908,-0.2381,0.92112
-0.1111,-0.26693,-0.14463,-0.67272,0.96238,-0.78244,-0.76701,-0.13859,0.51877,-0.74796,0.83053,0.94974,0.60117,0.60405,0.137,0.41925,0.19954,0.08544,-0.38976,0.84286,-0.38348,-0.72374,-0.17601,0.99179,0.57177,0.43958,0.21968,0.89826,-0.71448,0.10461,-0.12897,0.57072,-0.24978,0.97263,0.37562,0.47896,0.99679,0.96112,0.73974,0.46359,0.552,0.46474,0.47862,0.7994,0.87247,0.11591,-0.31033,-0.73621,-0.33138,0.41306
0.61607,0.30156,-0.91652,0.072183,-0.35114,0.76108,-0.91532,0.21263,-0.26134,0.3818,-0.82163,0.072668,-0.50824,-0.54073,0.14101,-0.80195,0.1876,0.85227,-0.55412,0.46169,-0.021903,-0.41352,0.17051,-0.6367,0.46232,0.91748,0.94302,-0.12947,0.50098,0.12952,0.17995,0.35561,0.44486,-0.4067,0.18457,0.83556,-0.95221,-0.41328,0.87967,-0.26858,0.87001,-0.52464,-0.83133,0.56858,0.84019,-0.58746,0.4426,-0.48006,0.2365,-0.18795
0.32023,0.47313,-0.43072,0.84939,0.90869,0.87495,0.99508,-0.14822,0.11087,-0.15374,0.11746,-0.91673,-0.098979,0.53975,0.95328,-0.024078,-0.95864,-0.19478,0.18831,0.0081012,-0.59307,0.25494,0.54783,-0.60815,-0.27592,-0.46817,0.65198,0.15497,0.54798,-0.41298,0.83271,0.81912,0.46847,-0.36029,-0.88762,-0.89232,0.6757,0.70779,-0.76715,0.084181,-0.72417,-0.51091,-0.068697,-0.58462,0.26404,0.83471,0.73675,0.65218,-0.37047,0.75322
