-0.74748,0.72379,-0.59261,-0.67163,0.96255,-0.0020374,-0.78303,0.66303,-0.76164,-0.43323,0.58161,0.6737,-0.74622,-0.64915,0.15584,-0.83611,0.99105,0.24447,0.0090562,0.79023,0.63007,0.50108,-0.82203,-0.2097,-0.10595,0.65596,-0.38105,0.48642,-0.51595,0.72958
0.043678,0.9448,-0.64088,-0.3665,0.96775,-0.36642,-0.86932,0.47758,-0.25483,0.32519,0.27941,0.032562,0.81029,0.97185,-0.14324,0.62933,-0.99214,-0.086944,0.055244,-0.58536,-0.40757,-0.48517,-0.84012,-0.17141,0.27209,-0.81702,-0.26544,0.74257,-0.42293,-0.25904
-0.97152,0.68104,0.87569,-0.29451,0.82708,0.42684,0.43449,-0.46313,-0.57565,-0.38619,0.86661,-0.51942,0.74068,0.41741,-0.96152,0.69732,0.34766,0.35528,0.52424,-0.81482,0.20899,0.8082,0.85866,0.57415,-0.59184,-0.38926,-0.33523,0.22241,0.87883,0.78074
-0.79859,-0.79266,0.99254,0.73423,0.45603,-0.53089,-0.82499,0.57406,-0.91094,0.77657,-0.076169,-0.42221,-0.85341,0.7277,0.80379,-0.7593,-0.8053,-0.47318,-0.88779,0.01441,0.36008,-0.8228,-0.38355,-0.049958,0.89712,-0.38675,-0.21468,-0.82288,-0.093933,0.23316
-0.26466,0.49467,-0.086609,-0.078647,0.1752,-0.084195,0.74819,0.48039,0.2558,0.10767,0.93474,-0.67095,0.8653,0.10983,0.36469,0.57347,0.98904,0.085886,0.74148,0.068496,0.21599,-0.44219,0.27883,0.31376,-0.83532,-0.036919,0.44001,0.61939,0.076236,-0.25824
0.91092,0.7084,0.62036,0.94394,0.92969,-0.10196,0.34343,-0.047042,-0.71863,0.053204,-0.93278,-0.4611,-0.67615,-0.89277,0.3015,-0.16855,-0.83321,-0.54753,-0.25675,0.49286,0.87406,-0.24985,-0.98412,0.073598,0.79132,-0.95034,-0.08981,-0.96536,0.27163,-0.41883
0.53888,0.85029,-0.27194,0.93754,-0.94168,0.74157,-0.60557,0.30012,-0.08243,0.13836,-0.46613,-0.89247,-0.23583,-0.6579,0.46679,0.65878,-0.9044,-0.62718,-0.46277,-0.32402,-0.057192,-0.44528,-0.67677,-0.62791,-0.85563,-0.37628,-0.056151,-0.38646,-0.22808,-0.41076
0.20558,-0.45263,-0.78705,0.080929,-0.93441,-0.15955,-0.33963,-0.099177,-0.08357,0.72165,0.70898,-0.38166,-0.51832,-0.41631,-0.76386,0.16097,-0.60801,-0.59168,-0.82412,0.20365,-0.347,-0.87889,-0.36304,-0.0041764,-0.55801,-0.52966,0.31661,-0.2698,0.1102,-0.057164
0.24642,0.24832,-0.38438,0.31357,-0.091583,-0.018603,-0.99357,0.49651,0.20327,-0.544,0.45945,0.25766,0.88316,-0.91507,0.36336,-0.98652,0.90111,-0.090464,0.74228,-0.69804,0.62783,-0.090167,-0.94006,-0.22755,0.10765,0.5075,-0.77544,0.30861,-0.2543,-0.76129
0.46732,-0.45059,-0.5799,0.99805,-0.4955,-0.38916,0.93542,-0.33622,0.78883,0.06915,-0.50868,-0.91408,-0.45626,-0.14596,-0.66005,-0.074695,-0.63559,-0.84764,0.83341,-0.25874,0.47425,0.69716,0.7746,0.20505,-0.22519,-0.23015,-0.1978,-0.60591,-0.779,-0.52943
-0.16965,0.85287,0.5048,-0.90599,-0.49513,-0.91683,-0.086012,-0.99272,0.82593,-0.75499,0.37589,0.29259,0.14136,-0.66137,0.49238,0.10017,-0.70076,0.99117,0.23277,-0.72447,0.45775,-0.47066,0.81986,-0.096246,0.41152,0.33978,0.16347,-0.93356,0.071498,0.085502
0.84404,0.97348,-0.18141,-0.99674,-0.68293,-0.12866,0.25774,-0.39671,0.56283,-0.13159,-0.44939,-0.017383,0.12222,-0.81607,-0.89427,0.71157,0.3109,0.54776,0.053294,0.13669,-0.56742,0.70383,0.021567,-0.21904,0.038437,0.72323,0.70964,-0.032089,-0.90926,-0.31313
-0.65892,0.57808,0.0369,0.35587,-0.14873,-0.88479,-0.078617,0.71982,0.11958,0.16689,0.27152,0.76756,0.33723,-0.52499,-0.19408,0.83248,0.93146,0.34622,0.21979,0.5534,0.52286,-0.14549,-0.32085,0.23213,0.82283,-0.47778,0.9876,-0.78726,0.35149,-0.89364
-0.079651,-0.58082,0.78436,0.62268,0.83758,0.95657,-0.46318,0.89609,-0.10749,-0.95612,-0.85411,0.36133,-0.27661,-0.022178,0.20732,0.53872,0.94557,0.85773,-0.10804,-0.076892,-0.98051,0.41232,0.86063,0.30936,-0.22374,0.68508,0.070046,0.61383,-0.010016,0.7303
0.62476,0.20435,-0.51638,0.2731,0.35862,0.86485,-0.1609,0.17715,0.22152,-0.034373,0.88853,0.09438,-0.20232,-0.95705,-0.2696,-0.083781,-0.75816,-0.72349,0.91701,-0.91069,0.27235,0.46399,-0.843,0.59969,0.19644,0.66601,-0.48654,-0.46303,-0.28431,-0.4815
0.97382,-0.86459,-0.30817,0.96075,0.79556,0.20998,-0.59207,0.47199,0.079139,0.91521,0.15236,0.70459,-0.1694,0.0039507,-0.31319,0.27553,0.83465,-0.047423,-0.30672,0.21044,0.16152,-0.99167,0.10625,0.31097,-0.24953,-0.88468,-0.96027,0.94782,-0.85406,0.6092
-0.94998,0.85468,0.85045,-0.59368,-0.80001,0.91377,-0.51009,0.63773,0.085582,-0.050086,-0.37836,0.35257,-0.15,0.17998,0.4313,0.84341,-0.66238,0.20536,0.68616,-0.10295,-0.76935,-0.0045473,0.15773,-0.89781,-0.84536,0.47264,-0.060896,-0.92024,0.048271,-0.90486
0.071448,0.8399,0.095353,-0.17051,0.93586,0.11595,-0.85041,0.067121,-0.027728,-0.70803,0.91718,0.30663,0.80072,0.078995,-0.63327,0.33685,-0.076303,-0.79823,-0.62555,-0.87468,-0.69887,0.26932,-0.34462,-0.98817,0.11125,-0.28399,0.083346,0.35936,-0.24432,0.15873
-0.83252,-0.68481,-0.1734,-0.20802,-0.97555,0.93324,-0.98841,0.41989,-0.11516,0.61862,0.18934,0.15481,-0.10135,0.15825,0.46093,0.33883,0.71388,0.01045,-0.37904,0.63255,-0.16157,0.78614,0.75978,-0.18023,-0.59411,0.79383,-0.64021,0.075456,0.54626,-0.50081
0.20069,-0.56857,-0.74037,0.51333,0.81448,0.25977,-0.54437,-0.35076,-0.6903,-0.6921,0.80719,-0.72617,-0.41625,-0.13858,0.75862,-0.26474,0.62483,0.44034,-0.27433,0.63005,-0.53803,0.5429,0.11142,0.27954,0.052526,-0.28264,-0.44967,-0.35616,0.37134,0.86683
-0.83102,-0.32882,0.35287,0.97655,0.43983,-0.40129,-0.49037,-0.34342,-0.45664,0.093999,0.70744,-0.60227,0.43509,-0.71806,0.28062,0.045919,9.2751e-05,0.40456,0.97513,-0.84298,-0.0298,0.19753,0.89109,-0.77008,-0.29449,0.43981,-0.32353,-0.87251,-0.20547,-0.045657
-0.0083325,-0.56298,-0.069728,-0.30905,-0.88565,0.71963,-0.53236,-0.64734,-0.41733,0.8373,-0.75506,-0.61052,-0.2446,0.1886,-0.43232,0.66165,-0.51896,-0.98454,0.95967,-0.3531,0.51361,-0.42272,-0.64615,-0.070087,0.046435,0.16282,-0.68471,0.45415,-0.054314,0.02968
0.52431,0.064623,-0.22491,-0.9154,0.64464,0.047386,0.26082,0.7619,-0.42065,0.93931,-0.11094,-0.5039,0.17271,0.59151,-0.45789,0.26152,-0.19012,-0.89457,0.7413,0.58825,-0.75018,0.64618,0.29673,0.83915,0.13756,0.86677,-0.25695,0.44816,-0.33944,-0.31809
0.61069,-0.83067,0.33742,-0.45682,0.78759,0.38031,0.92916,0.32137,0.67718,0.38056,-0.81838,0.44651,-0.38504,-0.91489,0.37491,-0.43232,-0.5594,-0.43709,-0.62486,0.85073,0.88122,0.28859,0.6299,-0.7605,-0.25516,0.52698,-0.067795,-0.32366,-0.48626,-0.83323
-0.28106,-0.014085,-0.78119,0.11152,-0.80126,0.80506,-0.30418,-0.74639,0.48351,0.62317,-0.30668,0.90552,0.68359,-0.95685,-0.19483,-0.0060327,-0.20661,-0.88827,0.095743,0.3603,-0.39653,0.052065,-0.4234,-0.67242,0.95689,-0.4875,0.26726,0.062142,0.94772,-0.23462
-0.8154,0.90074,-0.16047,0.39918,0.60419,-0.96137,0.91525,-0.46237,-0.15251,0.61838,-0.36513,0.88887,-0.80458,-0.35116,0.99942,0.10773,-0.36367,0.16864,-0.69161,0.93219,0.2601,-0.2719,0.95254,0.72056,-0.7027,0.36924,-0.27062,0.081825,-0.52755,0.6855
0.10751,0.26828,-0.049575,0.5716,-0.12251,-0.79288,0.26602,0.051498,-0.31458,-0.41378,0.99893,0.65769,0.41399,0.0022871,-0.66153,0.67065,0.34243,-0.48734,0.7553,0.65427,-0.86755,-0.10452,0.033139,-0.75873,0.6224,0.80557,0.5272,-0.53694,0.92066,0.79724
0.90835,0.23506,0.16889,0.20998,-0.71745,0.3982,-0.39934,0.31557,-0.59412,0.96355,-0.19433,0.11722,-0.2921,0.25119,-0.6759,0.10856,-0.060144,0.35077,0.65443,-0.54432,0.29802,-0.86,0.13133,-0.64271,-0.45306,-0.8412,-0.83942,-0.48488,0.11476,-0.74885
-0.82536,-0.47471,0.54175,-0.40973,-0.61982,0.22456,-0.70824,0.56745,-0.98836,0.64916,-0.98599,0.24367,0.44586,0.58385,0.98343,-0.49319,-0.96,-0.25339,0.28427,0.0054829,0.31283,-0.22178,-0.080288,-0.14641,0.50992,-0.95825,-0.48648,0.96959,0.33312,-0.060762
0.83274,-0.71494,0.43537,0.64015,-0.72198,-0.25593,-0.032927,-0.1512,-0.013034,-0.30499,0.5814,-0.73877,0.51314,-0.24814,0.68319,-0.92605,-0.81984,-0.35071,-0.43624,0.082302,-0.26294,0.83337,-0.66465,-0.88722,-0.038096,-0.93867,0.28972,-0.13909,-0.24094,-0.82794
-0.37795,0.40639,-0.044927,-0.68418,0.022854,0.28146,0.66838,-0.27488,-0.50601,-0.58127,0.55111,-0.11324,0.71121,0.995,-0.27223,0.88821,-0.30138,0.30396,-0.28256,-0.50434,0.94924,-0.98747,-0.067151,-0.73166,-0.91294,0.7425,0.29867,0.46633,-0.42078,-0.16694
0.042767,-0.26389,0.16003,-0.18559,-0.21908,0.30062,-0.35837,-0.73412,-0.022446,-0.56907,-0.7456,-0.16796,-0.0074081,0.26556,-0.70422,-0.53502,0.036962,0.89462,0.1215,0.52597,0.12521,-0.90137,0.9087,0.89815,-0.65641,-0.6131,0.91826,-0.26959,-0.44616,-0.93108
-0.88497,-0.84309,-0.78283,0.273,-0.91747,0.26158,-0.079095,0.31622,0.38183,-0.3803,-0.4326,-0.024935,0.58925,-0.43531,-0.47194,0.61259,0.61376,0.61219,0.56067,0.83054,-0.23616,-0.11591,0.94205,-0.52103,-0.92097,0.90163,0.26319,-0.95048,-0.10751,-0.19521
-0.52426,0.92536,0.045588,0.077864,-0.52991,-0.5452,0.13105,0.070321,0.72795,-0.90903,0.52962,0.012915,-0.66879,0.055833,-0.94543,0.11901,-0.97267,0.50173,-0.2008,-0.59407,-0.65951,0.36316,-0.20474,0.27735,0.4247,0.31774,-0.68459,-0.58857,-0.14458,-0.66771
-0.24797,0.40682,-0.26861,0.96754,0.2862,-0.011555,0.6392,-0.79295,0.78702,0.085199,0.92894,-0.16517,0.15592,-0.426,-0.49622,-0.41783,-0.29783,0.6888,0.29803,0.45257,0.30676,-0.77554,-0.35177,0.58807,-0.77138,0.7876,0.58634,0.97999,0.19248,0.82233
0.45634,0.26467,0.50768,-0.9828,0.014828,0.29066,0.38898,-0.99364,-0.77084,0.027762,-0.10037,-0.26983,0.36539,0.52808,0.69561,-0.52697,0.88323,0.22497,-0.17415,0.51282,0.67615,-0.15983,0.057982,0.64306,-0.68056,-0.43286,-0.29994,-0.20334,0.45249,0.39947
0.76004,-0.46845,0.51427,-0.81119,0.12983,0.53565,-0.68586,0.62839,-0.39806,0.75097,-0.37965,0.64475,0.31096,-0.49073,-0.90855,0.44396,-0.40544,0.61247,-0.76722,-0.073171,-0.33282,-0.36801,-0.26773,0.93048,-0.54975,-0.26821,0.16498,-0.281,-0.71329,-0.20455
-0.47797,0.49736,0.80772,0.071877,0.24399,-0.41477,0.20968,-0.15718,-0.68163,-0.6037,0.64418,-0.32427,0.28815,-0.6927,-0.51674,0.8558,0.79711,0.15781,0.23978,0.77747,0.068449,-0.098915,-0.31856,0.82673,-0.65128,0.43395,-0.15211,-0.83193,0.93827,0.94037
-0.39938,0.4605,0.83335,-0.99956,-0.84116,0.094455,-0.40321,0.92195,-0.58586,-0.26998,0.35963,0.79476,-0.35211,0.26259,-0.71393,0.83662,0.03986,-0.69941,0.15442,0.99247,0.97776,0.04347,-0.463,-0.08938,-0.18064,0.87598,-0.042179,-0.75802,-0.92483,0.1627
-0.7249,0.85281,0.22763,-0.054042,0.59755,0.3561,-0.90432,0.21879,0.059174,-0.27156,-0.0082257,0.92518,0.97653,-0.47048,0.59268,0.59082,-0.91791,-0.55882,0.084538,-0.50287,0.38722,-0.090441,-0.98637,0.6319,0.74455,-0.31553,0.39428,0.076615,0.78221,0.45765
0.039238,0.99181,0.66835,0.91228,0.07265,0.24694,0.27004,-0.95479,-0.27343,-0.52401,0.75298,-0.50789,0.8879,-0.20663,0.42862,-0.53296,0.13993,0.61223,0.57381,-0.029861,-0.22264,0.67012,-0.0097145,0.81795,0.72347,-0.7849,-0.090468,0.82729,-0.63815,-0.22813
-0.99946,-0.68014,0.85594,0.49066,-0.48659,0.085977,-0.64074,0.84707,0.64078,-0.41724,-0.66119,0.68314,-0.71616,-0.87886,0.69408,0.10149,-0.77572,0.9411,-0.74359,-0.2193,-0.65465,0.96796,-0.1301,-0.75984,0.50771,0.62313,0.8697,-0.47184,0.62184,0.73463
-0.86938,-0.76903,0.031848,-0.53751,-0.25324,0.024576,0.4675,-0.55954,0.62867,0.02208,-0.2834,-0.566,0.63969,0.50766,-0.018476,0.76426,-0.25883,-0.38468,-0.98081,-0.34485,0.83837,0.28784,0.10777,0.1605,-0.29154,-0.0017677,0.18081,0.87838,0.22656,-0.78614
-0.21469,-0.61981,0.81166,-0.10046,-0.78474,0.092613,-0.10921,0.39283,-0.54537,0.043982,-0.070246,-0.017113,-0.68082,-0.15231,0.25599,0.10543,0.27541,-0.8602,-0.04278,-0.23023,-0.069392,-0.49773,-0.85739,-0.71005,0.35549,-0.16611,0.37566,0.16324,-0.44954,-0.1959
0.25168,0.55641,0.58149,-0.70086,-0.50304,-0.76434,0.91685,0.67131,-0.34832,0.088182,-0.74178,0.10791,-0.18371,0.87179,-0.9517,-0.67952,-0.65365,-0.63281,0.79285,-0.76561,-0.71629,-0.80168,-0.2474,0.18831,0.48456,-0.49551,-0.27862,0.062978,-0.38256,-0.45203
-0.14222,-0.93744,-0.33111,-0.82792,-0.42213,-0.9085,0.22389,-0.18122,0.40863,-0.29757,0.2316,0.19449,0.43351,-0.87076,-0.52003,-0.91842,0.19217,0.15606,0.027634,0.71265,0.90604,-0.76354,-0.45978,0.77422,0.76069,-0.25032,-0.67416,0.21529,0.086239,-0.93911
0.13173,0.046143,0.65371,0.86481,-0.73523,0.8944,0.8489,-0.083505,-0.22271,0.43406,-0.80426,0.99088,0.35782,0.34061,-0.72513,-0.92752,-0.17247,0.6773,0.85053,-0.88694,0.42436,0.70149,0.78211,0.73673,0.55482,0.20267,-0.56426,0.56605,0.77282,0.67169
-0.48392,0.78825,-0.90626,-0.70999,0.32624,-0.86584,0.17822,-0.4642,-0.27901,-6.7016e-05,-0.85459,0.759,-0.5846,-0.33242,-0.49909,0.57962,0.88515,-0.22598,0.26981,-0.0024325,0.34115,-0.24762,-0.70123,-0.82868,0.74283,-0.24817,-0.65398,-0.5353,-0.38274,0.86751
-0.20194,-0.49923,0.11633,0.76098,0.40162,0.87226,-0.62462,-0.11106,-0.85122,-0.056669,-0.34224,0.48491,-0.69997,0.62683,0.87266,-0.74511,-0.72147,-0.84127,-0.056411,0.76841,-0.61933,0.89786,0.70134,0.24656,-0.76528,0.31255,-0.19028,-0.96325,-0.01931,-0.38652
0.33359,0.70954,-0.96828,-0.26141,-0.14266,-0.068751,-0.76088,0.40141,0.087669,0.046079,0.32111,-0.92871,0.58312,0.65977,0.76649,0.72166,-0.48457,0.27252,0.024816,-0.81251,-0.19842,-0.7434,-0.22412,-0.15367,-0.36997,0.87785,0.20135,0.62735,0.94471,-0.79751
-0.15789,0.55812,-0.15024,-0.63788,0.85433,-0.60175,0.60429,0.47882,-0.15544,0.26847,-0.50718,0.85216,0.037375,0.5851,-0.65743,0.38161,-0.56127,-0.83196,0.61125,0.15799,-0.90242,0.29962,0.062034,0.2483,0.49403,0.63339,-0.56295,-0.82982,0.514,0.93835
-0.58111,0.78282,0.62315,-0.85071,-0.5638,0.24574,0.37224,-0.055813,0.7274,0.14047,-0.94269,0.79652,0.63311,0.24886,0.036317,0.85887,-0.45987,0.54836,0.72412,-0.011096,-0.91321,-0.72176,-0.88899,-0.54063,-0.95654,-0.89072,-0.28239,0.39979,-0.604,-0.99247
0.52772,0.56438,0.64468,-0.44605,0.65687,-0.623,0.57568,0.25919,-0.092602,-0.083664,0.21801,0.37587,-0.16261,-0.99206,-0.13647,0.63475,0.33703,-0.50762,0.63705,-0.76013,-0.70935,0.41042,0.55048,0.73334,-0.83302,0.31294,0.7776,-0.19917,0.98358,-0.94463
0.81293,0.95942,-0.25845,-0.30431,0.92,0.84723,-0.11054,0.62794,-0.80998,-0.81222,0.9278,-0.60841,0.48555,-0.42272,-0.30839,-0.65389,0.32728,-0.28483,-0.60393,-0.60215,-0.47857,-0.15682,-0.47174,-0.30441,-0.62236,-0.37684,-0.87295,-0.32999,0.20682,-0.39243
0.35009,-0.57692,-0.4537,-0.76149,-0.73289,0.58919,-0.69463,0.095127,0.81936,-0.79168,-0.56046,0.17762,-0.68997,-0.28425,-0.37732,-0.028524,-0.0047016,0.012969,-0.99166,0.12351,0.82784,-0.47684,0.67307,0.6926,0.16396,-0.00506,-0.91038,0.057503,-0.58893,0.29204
0.92279,-0.86735,-0.079448,-0.5013,0.30178,0.56964,0.70225,-0.16396,0.38395,-0.64047,-0.15444,-0.028092,0.24991,0.73084,0.47893,0.50062,0.7456,0.75553,0.60149,-0.80912,-0.25961,0.13618,-0.84961,0.1446,-0.26216,0.022113,-0.14733,0.31024,-0.22056,-0.33351
-0.59147,0.91331,0.067309,0.061936,0.29847,0.68596,-0.99582,0.61656,-0.62036,-0.28934,0.53156,0.98691,-0.58406,-0.76421,0.067266,0.8966,-0.92257,-0.44627,-0.58952,0.34358,-0.064655,0.097899,-0.0542,0.32296,0.29299,0.0078515,-0.99925,0.55778,0.75518,0.70002
0.6474,0.35611,0.95938,-0.7524,0.59709,-0.75558,-0.89337,0.98078,-0.66701,0.83356,-0.64339,0.21387,0.88438,-0.036061,0.58738,-0.060652,0.66051,0.56281,-0.43112,0.89668,-0.36679,0.58958,0.18042,-0.41122,-0.92453,0.34089,0.60651,-0.17238,0.74279,0.36994
-0.66715,-0.81518,0.92625,-0.52365,-0.020151,0.85159,-0.34414,0.43891,-0.76644,-0.451,0.039986,-0.85154,-0.16559,-0.60266,-0.076334,0.68105,-0.4846,0.71641,0.70954,0.65189,-0.60737,0.16515,0.33351,0.47436,0.052528,-0.19014,-0.40157,0.15433,0.61881,-0.50124
-0.85085,0.91527,-0.58473,-0.20653,0.54765,-0.25825,0.54683,-0.65364,0.066911,-0.5527,-0.080806,0.12531,-0.56668,-0.86271,0.67364,-0.032325,-0.037021,0.91619,-0.032131,0.99827,0.89277,-0.63075,0.68738,0.091464,0.56368,0.78183,0.094367,0.92098,0.54244,-0.098954
0.59608,0.30031,0.36768,0.37776,0.35302,-0.46137,0.4276,-0.34704,0.22849,0.96247,-0.41312,0.28948,-0.26831,0.63257,0.99312,-0.015109,-0.83329,-0.42142,-0.24096,-0.44238,0.82115,0.82843,-0.70226,-0.92569,0.98147,-0.51278,0.83865,0.32069,-0.60812,0.99412
0.071488,-0.17815,-0.99909,-0.14889,-0.050185,0.61847,0.21145,-0.28405,0.81238,0.92049,-0.28184,0.59323,-0.60057,0.98542,-0.84383,-0.34401,-0.77956,0.29526,-0.062296,-0.1062,-0.16827,-0.80622,0.63796,0.15752,-0.087284,0.85294,0.12968,0.13013,0.74093,0.63078
0.15336,-0.77124,0.81171,-0.61624,-0.81065,0.033096,-0.69144,-0.90465,0.39642,0.66949,0.26202,-0.45537,-0.15217,0.70636,0.17464,-0.63751,0.22795,-0.34146,0.5031,-0.57594,-0.88986,-0.90677,0.22939,-0.10853,-0.99729,-0.062448,0.94587,0.23029,0.095173,-0.03155
0.46673,0.84615,0.65164,0.54355,-0.090102,0.19388,-0.51495,-0.58243,0.47913,0.9984,0.015394,0.11145,0.74539,0.62194,-0.17117,-0.018021,-0.29235,-0.1343,0.42323,0.56964,-0.70129,0.10504,0.27685,-0.99488,0.57625,0.12739,0.3719,-0.52982,0.38104,0.23079
-0.094364,-0.96864,-0.62984,0.46294,0.17277,0.77758,-0.18828,0.22286,0.53926,0.17136,-0.11404,0.91826,0.49857,-0.79196,0.50326,0.64107,-0.85111,-0.37741,0.95274,-0.57544,0.31891,0.55171,-0.83207,-0.89054,-0.37528,-0.47776,-0.34288,-0.15976,-0.49113,-0.28051
-0.19212,0.42613,0.46569,0.40568,0.87796,-0.19437,0.7201,0.73172,-0.5935,-0.80937,-0.35992,-0.62634,0.96188,-0.36651,0.81527,-0.8533,0.91878,0.90514,0.032818,0.21188,-0.16933,-0.01863,0.077488,0.40668,-0.5471,-0.45348,0.56245,-0.67933,0.34276,-0.80278
-0.49652,0.98111,0.48901,-0.9322,0.9196,-0.26096,0.2231,-0.48863,-0.83781,-0.20395,-0.48113,-0.35205,0.64332,-0.10652,-0.059858,0.79608,0.46608,0.24226,0.12191,0.0041676,-0.3873,-0.67422,-0.21176,-0.63371,0.98754,0.70295,-0.16416,-0.28286,0.79864,0.75262
0.60375,0.61314,-0.44293,0.20688,-0.70152,-0.38422,0.91362,-0.72984,-0.59401,-0.8081,-0.99338,-0.74207,-0.22416,0.44239,0.47621,0.42693,-0.091688,0.60641,-0.77782,0.27424,0.92584,-0.75117,-0.11908,-0.23277,-0.86562,-0.84685,0.81154,0.83789,0.016868,-0.21923
0.84816,-0.11057,-0.95185,-0.6916,0.81812,0.91863,0.42749,-0.034114,-0.49354,0.65528,-0.54263,-0.9447,-0.76706,-0.93936,-0.51352,-0.90957,-0.1435,0.35818,0.814,-0.47027,-0.22972,-0.16588,0.32326,-0.56866,-0.93352,0.11455,-0.92233,-0.23083,0.97883,-0.61642
-0.66146,0.65598,-0.37295,-0.5802,0.49089,0.093146,0.80408,-0.066773,0.27432,0.29121,0.65288,-0.46958,-0.0088019,-0.62567,0.01653,-0.75511,-0.51033,0.97969,-0.43648,0.53398,-0.34324,-0.079902,0.82836,0.61911,-0.99313,-0.019194,-0.51526,-0.69571,-0.1448,-0.17162
0.41336,0.88931,-0.57575,0.71936,0.57724,-0.8053,-0.14874,0.21779,0.49135,0.90076,0.85551,-0.99175,-0.41218,-0.77481,-0.039519,0.43404,0.12152,-0.91239,-0.64502,0.76416,-0.19396,0.85504,-0.85076,-0.006579,-0.49473,-0.87751,-0.13006,-0.24339,-0.51408,-0.94583
0.019693,0.32265,-0.55212,-0.57057,-0.16763,-0.074027,0.97999,0.61445,0.53151,-0.81378,-0.81677,0.17977,0.29209,0.79981,0.64176,0.93846,0.13676,0.50579,-0.79764,-0.53669,0.11709,0.21164,-0.48722,-0.47809,0.26384,0.94208,-0.61494,0.40248,0.69347,0.22982
0.10839,0.61605,-0.90185,0.37782,-0.76464,0.7249,-0.13675,-0.14289,-0.67496,0.01645,-0.49614,-0.045865,-0.66831,-0.16147,-0.4027,-0.086415,0.18832,0.99251,0.26423,-0.75969,-0.81205,-0.32589,-0.7498,0.51498,-0.53678,-0.10053,0.78677,0.83163,-0.18642,0.064464
0.21333,0.60306,0.83618,-0.63808,-0.035929,0.17191,0.74211,0.7862,-0.80594,0.77696,-0.9082,-0.73797,-0.75312,0.67335,0.78568,-0.31071,-0.5426,-0.63594,-0.82836,0.97799,0.90918,-0.24466,0.84915,0.53146,-0.49202,0.49096,0.85209,-0.75586,-0.0016152,0.62333
-0.76972,0.40314,-0.91436,0.40404,0.68874,0.77816,0.28496,-0.15012,0.98253,0.4158,0.44756,0.21193,-0.95002,-0.56638,0.012855,0.39701,0.93753,-0.24576,-0.22762,-0.31728,0.92647,0.64325,0.081811,-0.48252,0.68168,-0.35137,0.75418,-0.81138,0.3368,0.77968
0.77214,-0.78093,0.27153,-0.48106,-0.75867,-0.87973,0.21141,-0.15268,-0.33397,0.78965,-0.76007,0.75606,-0.58392,-0.74682,-0.080085,0.80704,-0.10416,0.0045709,0.8716,-0.60864,-0.40065,0.13238,0.66373,0.77695,0.77864,0.26723,-0.72461,0.8821,0.28163,0.8962
-0.66305,0.98153,0.23275,-0.69335,-0.73344,0.2368,-0.94535,0.26082,0.091148,0.2568,-0.232,-0.64171,-0.48995,0.093957,-0.71781,0.013451,-0.55083,0.76964,0.46929,-0.049668,0.83142,-0.92361,-0.1916,-0.31443,0.63883,-0.31248,-0.48824,-0.15808,0.61897,-0.17846
-0.21221,0.27879,0.60122,-0.44539,-0.92207,-0.30361,-0.32391,-0.62239,-0.88933,-0.99094,0.22235,-0.65655,0.66863,-0.94571,0.85133,-0.87388,-0.56105,-0.10716,0.02886,0.72096,0.62588,0.62847,0.8014,-0.70827,0.84558,-0.9326,0.87132,-0.21039,0.2436,0.61454
-0.51658,0.50071,-0.038636,0.2973,0.44163,-0.81751,0.8148,-0.073251,0.63255,-0.71901,0.40631,-0.0038013,-0.76631,-0.077058,0.73965,0.56298,0.79098,0.95256,-0.73365,0.006763,0.71317,-0.071537,0.06563,-0.96795,-0.67585,-0.85031,-0.076967,0.52945,0.91555,-0.6749
0.73232,-0.28261,0.61829,-0.52845,-0.1599,-0.43025,0.17706,0.98648,0.94521,0.83792,0.13608,-0.56643,-0.90202,-0.1551,0.75877,-0.30552,0.89066,-0.67064,0.39374,0.32084,0.75342,0.006044,-0.75425,0.52329,0.36332,-0.64887,0.91203,0.25028,-0.013139,-0.68428
0.57344,0.67304,0.46678,0.70029,-0.019492,-0.37113,-0.6136,0.32562,0.25312,-0.020878,0.94606,-0.60006,-0.88186,0.67427,0.18443,-0.59497,-0.32984,0.52741,0.66596,0.47775,0.82223,-0.083269,0.47563,0.56107,0.09917,0.94153,-0.81293,-0.38146,0.96872,0.12434
-0.37511,0.093125,0.076446,-0.18741,-0.84964,-0.41396,-0.10707,-0.77951,0.45491,-0.79242,0.68619,0.29187,-0.40451,-0.97004,0.11101,0.25382,0.41778,0.8911,-0.508,-0.85211,-0.16374,0.59082,0.87303,-0.83797,0.2789,-0.71321,0.46558,0.31172,-0.69104,0.83283
0.94522,-0.90765,-0.96335,0.60356,0.42125,-0.80101,-0.47222,-0.98947,-0.41563,-0.36716,-0.91537,-0.52894,0.75027,0.34985,0.059371,0.82898,0.3669,-0.80359,0.24054,-0.27768,-0.3956,-0.80099,-0.096072,0.13538,0.60733,0.79736,-0.00803,-0.65079,0.52051,0.026518
0.83389,-0.45702,0.67108,0.84491,-0.7039,-0.91484,-0.59337,0.10944,0.27809,-0.096007,-0.074947,0.73893,-0.66553,0.42483,0.92696,-0.6494,0.73131,0.61437,0.77455,0.70128,0.0094932,-0.034033,-0.21218,-0.24942,0.21439,-0.54956,-0.10677,-0.94646,-0.80317,-0.6946
0.050018,0.84008,0.08404,-0.031058,0.18564,-0.15256,0.92195,-0.036076,-0.43346,0.036174,-0.86528,0.33854,-0.85243,-0.41817,0.72564,0.53031,-0.91746,-0.99744,0.69224,0.4856,-0.84112,-0.74366,0.28622,0.32673,-0.69318,0.33273,0.90842,0.8769,-0.19066,-0.65947
-0.86153,0.074666,0.49384,-0.54824,0.618,-0.73586,0.88885,0.042076,0.2043,-0.94121,0.053611,-0.8086,0.65654,0.50927,0.51874,-0.56345,-0.12465,-0.29346,-0.48407,0.69463,-0.72784,-0.97594,0.0078938,0.045222,0.54584,-0.75789,0.37366,0.29538,0.57749,-0.81344
0.43001,-0.42562,-0.65357,0.7281,0.76684,0.3266,0.69336,0.57218,-0.019589,0.71741,-0.075743,-0.055742,-0.44758,-0.48969,-0.010043,0.052905,-0.40047,-0.2279,0.41013,0.83746,-0.67121,-0.82852,-0.36552,0.81945,0.76073,0.42099,-0.24242,-0.37024,-0.093864,-0.33836
-0.58698,-0.72551,-0.85897,0.31253,-0.54139,0.3979,0.63161,0.068627,-0.39685,-0.9347,0.28792,0.90962,-0.81569,-0.66613,0.1138,0.75812,0.48078,-0.22336,0.55518,-0.05797,0.60829,-0.98913,-0.030815,0.11398,-0.87701,-0.52078,-0.84029,0.86111,-0.96256,-0.20431
0.58134,-0.963,-0.58535,-0.42979,-0.15322,0.085677,0.84298,-0.46704,-0.2396,-0.88429,0.096566,-0.15559,0.37663,-0.60735,-0.21213,-0.3127,0.25504,0.50562,-0.27147,0.55391,0.74791,0.75526,-0.80345,0.97564,-0.71713,-0.0099103,0.38293,0.51353,0.70386,0.35426
-0.26911,0.90469,-0.85965,-0.23945,-0.96784,-0.94382,-0.88464,0.61027,-0.98501,0.5584,0.5593,-0.91524,-0.39039,0.21643,0.81611,0.80598,0.79789,0.42071,-0.93474,0.55927,-0.76588,-0.026096,-0.36867,-0.20344,-0.0018238,-0.32256,0.60036,0.9055,-0.69576,-0.40499
0.79412,0.89646,-0.22777,-0.86872,0.12297,-0.30954,0.15434,0.25455,0.52187,-0.6404,0.47192,0.29459,-0.47926,0.18231,-0.28478,0.52382,0.5689,-0.49569,-0.57363,0.77255,-0.16734,-0.45391,-0.68541,-0.15045,-0.44927,-0.0093478,0.4932,-0.12283,-0.45492,-0.017016
0.56268,0.68587,-0.1336,-0.93133,-0.33552,0.96364,-0.67372,0.59012,0.41211,0.11957,0.65123,-0.8661,0.077568,0.8736,0.73059,-0.10531,-0.064947,-0.032818,-0.29286,0.75,0.48547,-0.37239,-0.90006,-0.13963,-0.087311,-0.26045,-0.81883,-0.28371,-0.9875,0.59241
0.86812,0.26269,0.65696,-0.18655,-0.36627,0.1359,0.91569,-0.70439,0.9468,0.45628,0.4842,-0.6942,-0.73835,0.55703,0.73171,-0.15437,-0.68568,-0.51144,-0.052616,0.21906,-0.92307,-0.69551,-0.59853,0.36184,-0.33092,-0.30295,-0.97442,0.8386,0.97287,-0.49236
0.099439,0.75475,-0.04634,-0.88925,0.053527,0.44415,0.83168,-0.0605,0.14034,0.51709,-0.30385,0.38445,0.89756,0.19786,0.18218,-0.51811,0.93214,0.079028,0.8757,-0.17423,-0.77076,0.92164,-0.19703,0.10786,0.69511,0.27372,0.98792,0.95111,0.25452,0.23267
-0.25076,-0.74484,0.22617,-0.66825,-0.37862,-0.1745,-0.084517,0.47952,-0.2061,0.83003,0.37101,0.68033,-0.22842,0.1218,0.67748,-0.51958,-0.9047,0.30666,-0.4218,-0.83701,-0.37719,-0.095325,-0.82227,0.96984,-0.86193,-0.69726,0.2272,-0.58219,0.81491,-0.36166
-0.15965,-0.87287,0.60602,-0.83562,-0.077879,-0.092103,0.82367,-0.015945,0.20553,-0.75234,-0.50509,-0.10818,0.40663,0.67381,-0.029651,-0.53173,0.56822,-0.71438,-0.80701,-0.39988,-0.5497,0.27513,0.97721,-0.10048,0.18762,0.094118,-0.63554,-0.45798,-0.80228,0.27289
-0.2129,-0.62543,-0.61998,0.5929,-0.89918,-0.38991,-0.61039,-0.18531,0.29905,0.21852,-0.95928,-0.28617,0.28209,-0.9867,-0.22031,0.92253,0.63136,0.95193,-0.29923,-0.97772,-0.10454,-0.80044,-0.074455,0.71768,-0.70944,0.12697,0.43464,0.89806,-0.14522,-0.122
0.81716,-0.0013322,0.96044,0.054965,-0.18697,-0.59104,0.24342,0.37152,-0.071729,0.13393,-0.55875,-0.14923,0.90993,0.7252,0.12272,0.48572,0.61581,-0.20668,-0.91572,0.078696,0.20817,-0.27246,-0.39031,0.03669,-0.40285,0.54209,0.80813,-0.72947,0.77782,-0.67322
0.091717,0.6917,-0.47223,0.92322,0.20117,-0.87946,0.17405,-0.22044,0.41954,-0.77055,-0.72194,0.85494,0.20494,-0.9775,-0.4467,0.10895,-0.28128,-0.29641,0.75877,0.008307,0.30304,0.90339,-0.31027,0.015479,0.64698,0.37094,-0.8602,-0.61642,0.60285,0.55852
-0.062654,0.26869,0.9129,0.48281,0.44809,-0.69787,0.92626,-0.42624,0.72791,0.52575,0.39718,0.10582,-0.42364,0.90992,0.3872,0.48228,0.9767,0.76204,0.50708,-0.82873,-0.40454,0.91456,0.69953,-0.22873,0.85231,0.85608,0.6553,0.46553,-0.98895,-0.56002
-0.63877,-0.2581,-0.72133,0.33414,-0.18896,0.31437,-0.31673,0.14203,-0.61591,0.83968,-0.36867,0.71491,0.27403,0.95444,0.84913,-0.95665,-0.86613,0.98365,0.10803,0.12522,0.65815,-0.90815,-0.21884,0.31736,0.7669,-0.87395,-0.2034,0.95145,-0.67559,0.16263
-0.83818,0.10143,-0.74749,-0.12302,0.27827,0.19205,-0.60701,0.80401,0.65612,0.96955,0.96217,-0.43477,-0.50946,-0.89369,0.11327,-0.21709,-0.73561,-0.46469,0.33571,0.92864,-0.29907,-0.29789,-0.7362,0.87103,0.49233,0.11181,0.49349,0.58291,-0.90548,0.19951
0.75314,-0.94349,-0.32546,-0.29117,-0.99993,-0.18755,0.77439,-0.24037,0.43306,0.5897,0.82979,0.5317,-0.083114,0.33131,-0.51733,-0.72628,-0.89628,0.20841,0.78259,0.17821,0.51943,0.37557,0.20806,0.19723,0.87358,-0.19825,-0.31001,0.46482,0.7891,0.35396
0.046751,0.73074,-0.26282,-0.15849,-0.56087,0.2412,-0.54788,0.61272,0.2608,0.03318,0.73827,0.96198,0.39986,0.063199,-0.77777,-0.32846,-0.42518,0.0081422,-0.92263,0.67841,-0.98862,-0.43326,-0.49026,-0.77942,-0.44482,0.38847,0.72942,-0.70839,-0.91578,-0.81342
0.78987,-0.26505,-0.087862,0.60748,0.48819,-0.76016,-0.4563,-0.92351,-0.45292,0.61152,-0.63627,-0.49491,0.029029,-0.11386,0.15185,-0.79036,-0.92703,0.63531,0.11938,-0.72468,0.49225,0.19004,-0.21707,-0.8378,-0.74888,-0.43064,-0.96476,0.54047,-0.37014,-0.35717
-0.19049,-0.16364,0.62754,-0.90433,0.29021,-0.25419,0.52639,-0.033528,-0.64524,0.04707,-0.56382,-0.25688,-0.67471,-0.43164,-0.08657,-0.6543,0.2416,-0.045919,0.98818,0.70309,0.53425,-0.20686,-0.8439,0.1635,-0.88869,0.13461,0.25774,-0.5973,0.098987,-0.64604
-0.11456,0.49603,-0.25313,0.75254,0.051296,-0.8653,-0.81796,0.60934,-0.58979,0.69911,0.2744,0.080547,-0.098725,0.37248,-0.47416,-0.49899,0.63155,-0.81928,-0.79969,-0.70394,-0.050634,-0.70883,-0.62799,0.58084,0.86061,-0.25523,0.033372,-0.27452,0.59955,-0.50476
0.89138,-0.64052,-0.7647,-0.66793,0.98427,0.089693,-0.63384,0.99173,0.29536,-0.41977,0.97279,-0.60935,0.54669,-0.20641,0.55888,0.029653,0.39142,-0.62453,0.36271,-0.9286,-0.95196,-0.36165,-0.86431,-0.41687,-0.72089,-0.35526,0.79911,-0.43891,0.0058244,-0.9361
0.25464,0.6944,-0.23407,0.89282,0.72244,0.60957,-0.193,-0.20943,-0.27817,-0.44215,-0.72943,0.36602,0.5599,-0.96079,0.98864,-0.17779,-0.50363,-0.17128,0.15445,0.10746,-0.13757,0.24198,0.85987,0.013877,0.98621,0.76346,0.34133,-0.2484,0.25835,-0.9535
-0.22161,0.77359,-0.90871,-0.048039,-0.91732,0.83015,0.17785,-0.26128,-0.59059,0.83641,-0.69149,-0.026225,-0.82104,0.072932,0.76844,-0.064023,-0.53848,0.24823,0.85192,0.05935,0.020208,0.48088,0.42295,-0.048991,-0.87572,0.21545,-0.34062,-0.82642,0.7461,-0.44515
0.2765,-0.28214,-0.43119,-0.94737,0.69826,0.10464,-0.084528,0.46309,-0.21101,-0.90725,0.99108,0.46614,0.97523,0.766,-0.48318,0.031361,0.77956,0.3442,-0.34131,0.88156,-0.19629,0.58421,0.40049,-0.94388,0.53502,-0.49594,-0.42224,-0.90259,-0.85828,0.8749
-0.39558,0.67945,0.5572,-0.28394,-0.19886,0.99623,0.97472,-0.85345,-0.055986,0.87751,0.32742,-0.15501,0.59677,-0.58103,0.67173,0.44987,0.3845,0.58574,-0.44506,-0.64083,0.59502,-0.83917,-0.84157,-0.40591,0.42058,-0.59487,0.23897,0.039405,0.010065,0.31064
0.064244,0.46479,0.64183,0.79461,0.96967,0.18651,0.6042,-0.37157,-0.22997,0.4168,0.51341,-0.6593,0.2988,-0.2515,-0.075527,-0.54653,-0.20817,-0.84752,-0.77102,0.46773,0.70039,-0.79035,0.66284,0.51261,-0.56704,-0.40519,-0.66912,-0.45854,-0.84345,-0.34867
-0.98468,0.75745,0.36581,-0.78503,-0.41246,0.76165,-0.8914,-0.54937,-0.18212,0.6693,-0.57623,0.36387,0.78875,-0.37393,-0.79904,0.4353,0.87087,-0.21569,0.57549,-0.72399,0.67248,-0.17559,0.65536,0.55481,0.44175,-0.7064,-0.58675,0.17981,0.49633,0.98664
0.30415,0.29372,-0.66239,0.6635,0.49567,0.72448,0.69954,-0.65433,0.12923,0.88598,0.72861,-0.55033,-0.50657,0.68008,-0.38343,-0.796,-0.54376,0.39855,0.058797,0.78341,-0.73904,-0.019523,0.29466,0.95426,-0.76982,-0.22702,0.3614,-0.93743,-0.43747,0.22869
-0.20373,-0.44583,0.80021,0.18171,-0.39687,0.077861,-0.70294,0.34761,-0.34985,-0.011306,-0.61442,0.18314,0.11234,-0.50663,0.91306,-0.82907,-0.86308,-0.77146,0.59248,0.83058,0.75425,-0.12771,-0.88502,-0.33184,-0.76027,0.069917,-0.38865,0.36368,-0.97444,0.89531
0.49677,0.45114,0.71574,-0.19489,0.37441,0.94355,-0.22255,-0.29225,-0.66331,-0.17267,-0.027727,-0.018521,0.16155,-0.27678,-0.35086,0.012437,0.56468,-0.91796,0.18422,-0.13865,0.16097,-0.41157,0.80346,-0.72706,0.76679,-0.16084,-0.73686,0.3351,0.10038,-0.69096
-0.93615,0.18993,0.23203,-0.1083,0.97827,-0.74182,0.19497,-0.83172,0.85469,0.49219,0.31087,0.66606,-0.54058,0.17679,0.74125,-0.1949,-0.56858,-0.16595,-0.16285,0.20712,-0.90315,-0.16391,-0.34542,-0.51456,-0.68087,0.82797,-0.32323,0.21178,0.59563,-0.89754
0.52794,0.91951,-0.86051,-0.017837,0.64958,-0.99823,-0.13964,0.95126,-0.70284,0.39241,-0.53666,0.00859,0.35626,0.080437,-0.90052,0.45987,0.33605,-0.46154,-0.41424,0.67824,-0.73953,0.097538,-0.19758,-0.66647,-0.3078,0.17702,-0.94567,-0.70006,0.64663,-0.56254
-0.86233,0.093428,-0.85891,0.42859,0.47852,-0.96181,-0.35708,-0.39877,-0.83212,-0.82567,-0.032468,-0.39205,0.40488,-0.82443,-0.35088,0.96198,-0.59935,0.96666,0.76291,-0.31721,-0.96657,0.48275,0.68161,0.15547,0.58715,0.37432,0.72173,-0.25056,-0.16596,0.70686
-0.35523,0.72959,-0.59527,0.27282,-0.90528,0.29726,0.75592,-0.99138,0.6324,0.97478,0.47221,0.022401,0.61195,-0.2658,-0.24769,0.94122,0.84704,-0.70216,-0.91792,-0.24576,-0.27154,0.87724,-0.47257,0.9317,0.11252,-0.52063,0.0068533,-0.88414,-0.029253,0.48319
0.81942,0.48304,-0.8389,-0.075345,-0.83514,0.99574,0.06056,0.66658,0.62944,0.88072,0.55096,0.50014,0.54539,-0.39244,0.48796,-0.37507,0.44946,-0.96424,-0.40378,-0.84128,0.71762,-0.17724,0.038617,-0.60487,-0.53881,-0.64413,-0.37263,-0.81535,0.95631,0.58103
0.58597,-0.73489,-0.89644,0.32195,-0.16697,-0.41637,-0.48718,-0.28325,0.79903,0.081231,-0.6199,-0.92617,-0.6981,0.22487,0.38921,0.33055,0.3759,-0.048161,0.2114,0.98779,-0.057371,-0.3026,-0.66739,0.26994,0.44376,-0.14581,0.72929,0.94945,0.54033,-0.17145
-0.38328,-0.90546,0.97666,0.9938,0.65949,-0.13479,-0.7642,0.3744,-0.7133,-0.66904,-0.3486,0.562,0.19375,0.88255,0.52857,-0.17421,-0.69722,-0.16101,0.37211,0.27845,0.31074,0.02239,0.98627,-0.88096,0.03056,-0.53136,-0.46411,0.24411,-0.30243,0.05193
-0.89965,0.82114,-0.63186,-0.52291,0.14836,-0.20261,-0.64135,0.78239,0.92686,-0.46861,-0.80854,-0.66439,0.21735,0.98076,-0.63357,-0.40008,0.41368,0.31894,0.90274,-0.77063,-0.90435,0.21092,0.52451,0.0018253,0.38666,-0.48263,-0.48564,0.74578,0.57178,-0.94974
-0.59362,-0.30492,0.46883,0.32153,0.74435,-0.070428,-0.47033,-0.019111,-0.26703,-0.9839,-0.74168,0.79955,0.73197,-0.23934,-0.48918,0.062501,0.76846,0.3665,0.025683,-0.194,-0.90198,0.090218,0.65902,-0.66699,-0.39271,0.84489,-0.94686,-0.75017,0.14614,-0.41401
-0.20064,-0.75977,0.71005,-0.56238,0.19863,-0.42269,0.29965,0.35291,-0.5264,-0.27857,0.37113,-0.85791,0.69868,0.51189,0.70324,-0.79717,-0.17376,0.3492,-0.25629,0.93727,0.44086,-0.29464,-0.13002,-0.41841,-0.70115,-0.52141,-0.54735,-0.59183,0.68154,0.79132
0.15608,0.50732,-0.010809,0.14999,-0.30373,-0.12521,-0.84706,-0.48368,0.87687,-0.69473,0.44971,0.25315,0.45108,-0.49832,0.51217,-0.87077,-0.26789,0.046108,0.035955,-0.80201,-0.36433,0.4858,-0.61431,-0.68734,-0.82279,-0.5799,0.59996,-0.50479,-0.71572,-0.63372
0.82225,-0.68931,0.74704,0.15776,-0.20167,0.73393,0.50343,-0.25727,0.50343,-0.0012972,0.28395,-0.39191,-0.68008,0.67423,-0.47554,0.91951,0.49971,0.53131,-0.94248,-0.95608,-0.40092,0.60209,0.21717,-0.87212,-0.94167,-0.94488,0.3403,-0.35842,0.39313,-0.46041
0.65917,-0.090616,-0.090603,-0.42483,-0.5506,-0.71156,0.83634,0.45779,0.80276,0.031755,-0.79881,-0.11566,0.25489,-0.92919,0.35723,-0.97738,-0.3368,0.045789,0.43637,0.0070548,0.28617,0.79454,0.50457,0.8237,0.69458,0.1945,0.3872,-0.7068,-0.86053,0.38192
0.90169,-0.56391,-0.26962,0.27795,-0.18292,-0.69225,0.96783,-0.49136,-0.18207,0.90371,-0.24077,-0.95888,-0.37544,-0.030106,-0.017449,0.81723,0.69769,-0.1351,-0.4199,-0.52839,-0.92608,-0.69489,-0.7564,0.44099,0.36899,0.74289,0.30799,-0.30738,0.73606,0.58732
0.1538,-0.47217,-0.71959,0.56018,-0.44896,-0.05341,-0.24972,-0.21199,0.96939,-0.90426,-0.36329,-0.2244,-0.35423,0.54829,0.61287,-0.49625,-0.99642,0.72047,0.41885,-0.66939,-0.51289,0.62898,-0.90491,-0.61876,0.59937,-0.46727,0.15571,-0.21701,0.61481,-0.036057
-0.61427,-0.2389,0.11577,0.076266,0.56695,0.095895,0.60941,0.5304,-0.019895,-0.093503,0.90289,0.62312,-0.56707,-0.67002,-0.30021,-0.97212,0.23615,0.46677,-0.40998,-0.9785,-0.88527,-0.65595,-0.53102,-0.048935,0.74842,0.049873,-0.17656,0.22622,0.85622,-0.46518
0.42594,0.3529,0.26817,-0.0034494,0.50833,-0.68589,-0.86426,0.13257,-0.30758,-0.91049,0.34561,-0.44703,0.68938,0.26748,0.47863,-0.045506,0.45229,-0.21578,-0.97557,-0.37255,0.87702,-0.81952,-0.30805,-0.35048,-0.99654,0.22554,-0.3705,-0.6333,0.016569,-0.59082
0.83197,-0.13586,-0.41354,0.24845,-0.68777,-0.73305,-0.29291,-0.92992,-0.44774,-0.91181,0.92057,-0.98332,0.011665,-0.56935,0.83328,-0.55947,-0.4306,-0.51227,-0.48003,0.63625,0.88634,0.2434,-0.45327,-0.86692,-0.29886,0.25152,-0.053412,0.77815,-0.75644,0.77031
0.39988,-0.65882,-0.9814,-0.039118,-0.5501,-0.45694,0.27823,-0.94544,-0.70313,-0.73182,0.50456,-0.53237,0.4161,0.44845,0.9743,0.26447,0.061324,-0.72217,-0.61446,-0.53887,-0.1034,0.044776,0.55868,0.10085,-0.15467,-0.92013,0.12083,-0.39471,0.87379,-0.18035
-0.050677,-0.21958,-0.46417,0.83821,0.57546,-0.88234,0.64918,-0.46323,0.24451,-0.81468,-0.032155,-0.13509,-0.031587,0.82065,0.050629,0.5577,0.85019,0.87544,0.79096,0.36821,0.76841,-0.81481,0.18152,-0.80767,0.76337,0.93905,-0.70558,0.99181,0.22996,-0.089604
0.77661,0.48109,0.38625,-0.78631,-0.71242,0.78567,0.14466,0.17788,0.19408,0.58213,-0.64381,-0.781,-0.99457,-0.13538,0.53864,-0.45937,-0.39907,-0.84668,0.94248,-0.6226,-0.8925,-0.71594,-0.4273,0.8065,0.50676,0.020302,0.96098,0.13936,0.86169,-0.82384
-0.033685,0.72034,0.56977,-0.75381,0.91471,-0.034179,0.18947,-0.56779,-0.2438,-0.59774,0.57754,0.96352,-0.05205,0.31252,-0.049469,0.26555,-0.5915,-0.71892,-0.28398,0.74781,0.12264,-0.91268,0.76427,-0.62667,-0.28324,-0.40217,0.5998,0.072679,0.1938,-0.52599
0.26616,0.85865,0.60259,0.9198,0.61509,0.3826,0.1927,0.084917,0.2004,-0.55387,-0.34318,-0.44247,-0.23845,-0.16438,-0.95536,-0.57681,-0.90262,0.26162,0.38708,-0.018242,0.47811,-0.33333,0.29653,-0.47071,0.54957,0.1917,0.21151,0.90197,0.39089,-0.01761
-0.44727,-0.32466,0.63795,0.84207,-0.948,0.83634,-0.45231,-0.88414,0.68639,0.79242,0.43045,-0.54427,0.24763,-0.082594,0.24793,0.31485,-0.030739,-0.83969,-0.1502,0.039843,0.031563,-0.62701,-0.41105,0.10527,0.51851,-0.89409,0.97725,0.70222,-0.10651,-0.57109
0.28686,0.81519,0.38803,0.014264,0.86761,0.94672,0.8945,0.52062,-0.12319,-0.53568,-0.48612,-0.035263,0.76058,-0.82891,0.67713,-0.32632,0.29795,-0.74941,-0.75266,0.88616,-0.36615,-0.98088,0.54474,-0.48371,-0.45739,0.40899,0.98585,-0.89145,0.55571,-0.15721
0.37659,0.67902,0.9325,0.39675,0.36135,-0.20132,0.83554,0.20692,0.14982,0.58031,0.40789,0.76389,-0.81153,-0.95999,0.80259,-0.61866,-0.53337,0.74552,-0.9308,-0.12849,-0.78183,0.83426,-0.7019,-0.17529,-0.98128,-0.65104,0.92589,-0.0094312,0.91144,0.43146
0.8028,-0.21028,-0.20229,-0.30914,0.0012582,-0.44892,0.97506,-0.69731,-0.13248,-0.75427,-0.10989,-0.59553,0.12707,0.35073,-0.50318,0.81396,0.67381,-0.49895,0.23208,0.86862,0.29184,-0.13183,-0.60308,0.23398,0.58624,0.25744,0.25393,0.26931,0.23738,-0.92065
-0.35149,-0.85273,0.75389,-0.57794,-0.027612,0.69966,0.91248,-0.43587,0.85146,0.74482,-0.74188,-0.85799,0.23912,-0.9598,-0.35147,-0.67629,-0.40589,-0.29457,0.86494,0.30419,-0.3551,-0.84297,0.42486,0.45463,0.68593,0.86952,0.12623,-0.1833,0.70542,0.94237
-0.67143,-0.85423,0.37181,0.41652,-0.15792,0.0054514,-0.23659,0.45688,-0.81015,-0.27537,0.60374,-0.86197,-0.707,-0.43943,0.29048,-0.072311,0.76598,0.034688,0.30981,0.47143,0.062082,0.46982,-0.42889,0.54541,0.61884,-0.7443,-0.00087031,0.51179,0.50109,0.052373
0.62424,0.0033293,0.81322,-0.89025,-0.15863,0.55493,-0.11954,0.56655,-0.85017,0.23905,-0.82737,-0.5451,-0.94577,0.53867,0.2193,0.48329,-0.26202,-0.47456,-0.89847,-0.37219,-0.078097,-0.018339,-0.06906,-0.32422,0.41369,0.35065,-0.61448,0.45915,0.34776,0.57432
-0.57405,0.056177,-0.98772,-0.39605,-0.96172,0.9966,0.79059,-0.2577,0.36432,0.43907,-0.85012,-0.86924,0.35573,0.047041,-0.57448,-0.49897,0.47341,3.7544e-05,-0.5074,-0.95372,-0.42932,-0.81974,0.11081,-0.76668,-0.87313,0.446,0.30373,-0.18035,0.39242,-0.66379
-0.66089,0.91799,0.027832,0.37457,0.91878,-0.21544,0.56962,0.97801,-0.0066442,-0.48483,-0.1268,0.43031,-0.9627,-0.5642,-0.065089,0.9149,0.96334,-0.8914,-0.36283,0.8308,-0.66732,0.65499,0.69311,-0.2706,0.41205,-0.66593,0.24696,-0.59138,-0.58569,0.62814
0.5688,0.045743,-0.88183,-0.32064,-0.10213,0.73271,-0.30685,0.082369,-0.12321,0.21358,0.097141,0.77541,-0.044457,-0.2583,-0.32142,-0.72601,-0.85886,0.94158,-0.91447,-0.66918,-0.29027,0.89531,0.96437,-0.16098,-0.75725,-0.38739,-0.90537,-0.75601,-0.93826,0.938
0.44956,0.42999,-0.77918,-0.16582,-0.03521,0.91285,-0.11849,0.0589,0.18369,-0.30023,0.37237,0.36409,0.68556,-0.3852,-0.17047,-0.7653,0.11447,0.20868,-0.14395,-0.48286,-0.69793,-0.67519,-0.19672,-0.19634,0.18957,-0.5594,-0.19002,0.25846,0.35583,-0.56609
-0.34512,-0.47689,-0.45342,0.13693,-0.74669,-0.35009,-0.47532,0.86384,0.97791,-0.5413,0.61773,-0.26163,-0.07677,0.17238,-0.41665,0.29913,0.077883,0.065941,-0.14287,0.67089,0.36116,-0.37792,-0.3766,0.42721,-0.14677,-0.3839,0.22687,-0.5486,0.71809,0.46772
0.24093,0.88398,0.15801,0.55223,0.32652,0.076086,0.59104,-0.33503,-0.18588,0.89383,0.27589,0.79074,0.63142,0.56273,-0.44282,0.59256,-0.92041,-0.34527,-0.58292,0.30739,0.84198,-0.71783,0.26583,-0.60919,-0.91156,0.010481,0.076295,0.51847,0.59357,0.24586
-0.094275,0.54387,0.53551,-0.65914,0.82487,-0.38692,-0.40198,-0.47844,-0.09814,-0.88598,-0.77275,0.067398,0.059911,-0.68739,0.58323,0.39315,-0.6997,-0.15163,-0.9762,0.19292,-0.67234,0.57492,-0.19102,-0.86791,0.39629,0.053237,-0.056872,-0.8405,-0.15866,0.16577
0.46251,0.56005,-0.85066,0.01581,-0.15934,-0.92017,0.84732,-0.092588,0.45676,-0.66208,0.29389,0.47982,0.21656,-0.77473,0.56554,-0.57897,0.11989,-0.66777,0.89718,-0.30653,0.73394,0.93747,-0.38566,-0.91546,0.52371,-0.69657,-0.63428,0.8952,0.013879,0.76581
-0.63753,0.82294,0.18547,-0.29776,-0.025076,-0.30001,-0.28989,-0.99743,0.42089,0.89264,-0.8877,-0.77534,0.51855,0.98318,0.69927,0.22732,0.08677,-0.92334,-0.71997,-0.89344,0.30465,0.61389,0.85387,0.89672,0.61278,-0.091527,0.38992,0.13859,0.95774,0.93482
-0.67571,0.66174,0.51501,-0.35916,0.00082069,0.76861,0.48787,0.99785,0.83351,-0.81316,-0.28363,0.38028,0.071191,-0.11888,-0.7904,0.9704,-0.002312,0.41006,0.18844,0.047181,0.22568,0.534,0.069135,-0.40603,0.92923,-0.76782,0.17377,-0.52345,-0.060109,0.091572
0.3845,-0.035337,0.35745,0.58999,-0.76274,0.79668,-0.96712,0.0044236,0.87876,0.62502,-0.027345,0.16266,-0.20146,0.95133,0.85809,0.60166,0.28517,-0.11468,0.48864,0.68565,0.98132,0.47984,-0.37441,-0.70569,-0.58356,-0.52003,0.29031,-0.76234,-0.58027,-0.69638
0.20296,-0.56004,-0.40374,0.43643,-0.37457,0.79143,-0.67472,-0.83831,-0.77879,-0.025489,0.70346,0.43582,0.67062,-0.80455,0.18807,-0.13794,0.98041,0.78498,0.015283,0.12176,-0.33986,0.28083,-0.18577,0.75974,-0.60042,-0.49451,-0.76861,0.81035,0.52419,0.26631
0.18951,0.76446,0.53098,0.14165,0.068559,0.18615,-0.47919,-0.33149,-0.91739,0.93751,-0.52254,0.25111,0.32964,0.030396,0.21245,0.21439,0.26891,-0.93148,0.87284,-0.84331,0.9912,0.8208,-0.7291,0.17071,0.78746,-0.15631,0.25163,0.94056,-0.59841,0.47665
0.88259,-0.53748,-0.54438,0.55886,-0.97621,-0.49411,-0.25684,0.8288,-0.52674,0.4599,0.10252,0.3816,0.31908,-0.99533,-0.64249,0.30028,0.089972,0.52184,-0.77153,-0.484,-0.446,0.47411,0.31236,-0.51683,-0.52289,0.87205,0.51012,-0.55214,0.79698,-0.53526
-0.33392,-0.5781,-0.79502,-0.22706,-0.14381,0.17699,0.020959,0.18071,-0.021663,0.88351,0.19669,-0.20362,0.71718,0.4929,-0.51159,-0.35644,-0.2101,-0.10061,-0.56554,0.98425,0.4732,-0.33695,-0.20115,0.75208,0.60178,-0.30942,-0.5467,-0.36377,0.75693,0.10214
-0.1122,-0.58311,-0.31495,0.6712,0.2729,0.41147,-0.70485,-0.91517,-0.83876,-0.74498,0.5165,-0.58018,-0.19432,0.67773,0.95185,0.61383,-0.98341,-0.94545,-0.58103,0.63287,-0.87129,-0.82129,-0.55009,-0.9958,-0.28742,0.96323,0.17814,-0.85303,-0.49126,-0.64013
0.22219,0.91634,0.3142,0.073148,0.87948,-0.31286,0.081768,-0.1999,-0.07787,0.30356,-0.48557,-0.73609,0.52907,-0.65139,-0.37504,-0.46218,0.034625,-0.47773,0.59003,-0.18142,-0.099495,0.069218,0.45595,-0.23837,-0.054258,-0.32803,0.5256,-0.96198,-0.98104,-0.90906
0.36808,0.59182,-0.4675,-0.66384,0.29218,-0.051326,0.67876,0.74532,0.23235,-0.60356,-0.026894,-0.77663,-0.59423,-0.94375,0.1269,-0.55529,0.013954,0.50111,-0.62642,-0.57146,0.48814,0.16506,0.037101,-0.11925,0.62765,-0.78693,0.69355,0.41951,-0.75244,0.78578
-0.69071,0.62698,0.38871,-0.019569,-0.71429,-0.77862,0.501,-0.5172,0.10121,-0.25553,-0.79162,-0.60989,-0.36857,0.14929,0.45433,0.1416,0.47795,0.92597,-0.38424,-0.76149,0.024926,0.21851,0.55249,0.18026,0.40658,-0.061207,-0.84698,0.93224,-0.31414,-0.61258
0.71025,-0.77677,-0.4851,0.99124,0.41189,0.28525,0.12219,-0.40674,-0.84384,-0.33494,-0.27404,0.84247,0.94629,-0.18224,-0.17248,0.64445,0.39178,-0.82313,-0.92224,0.50727,0.9501,0.33002,-0.98811,0.048606,-0.59711,-0.23762,-0.28441,0.43004,-0.87099,0.15902
-0.65673,-0.018917,0.77703,0.41289,0.53905,-0.88883,0.58107,-0.058825,0.35213,-0.06062,0.69101,-0.69121,0.10505,-0.35023,-0.084995,-0.99322,0.49703,-0.065563,-0.91334,0.40775,-0.41188,0.75498,-0.5847,0.80809,0.91032,-0.083011,-0.77374,0.92633,0.090613,-0.028983
-0.16681,0.81395,0.70461,-0.13642,0.8575,-0.73177,-0.86251,-0.25116,0.65052,0.13395,-0.22421,-0.63295,0.053882,0.3267,-0.21933,-0.65693,0.3644,0.52448,-0.010595,-0.92391,0.4813,0.087041,-0.53829,-0.83623,-0.97766,0.57515,-0.84844,0.14395,0.89715,-0.97705
-0.11903,0.90285,0.23158,-0.77773,-0.24271,-0.46544,-0.87882,-0.51134,0.34928,0.061848,0.59391,0.99903,-0.89826,0.32114,-0.60552,0.9705,-0.59145,-0.11139,0.56336,0.25325,-0.59284,-0.57688,0.82705,0.56127,0.14317,-0.75386,-0.66106,-0.6765,0.94424,0.36603
0.58411,0.3296,0.064617,0.98728,-0.25743,-0.046546,0.5971,0.083357,-0.23741,0.42324,-0.30735,-0.26688,-0.52194,-0.52849,-0.97755,-0.9575,0.091737,-0.11023,0.16182,-0.27592,0.47648,-0.42943,-0.62615,-0.48143,-0.90709,-0.43002,-0.77438,0.98866,-0.27409,-0.95318
0.96339,-0.96436,-0.75686,0.68784,0.60158,-0.37275,-0.26522,-0.47906,-0.38479,-0.55396,-0.40098,0.87608,-0.57295,-0.96281,0.051984,0.84442,-0.70216,-0.64845,-0.43744,0.3303,0.91577,0.39962,-0.48794,-0.82279,-0.44632,-0.1492,-0.56405,0.30369,-0.55112,-0.64497
0.96595,0.50411,0.59855,0.27184,-0.90057,0.1152,0.93806,0.54504,0.46301,-0.061227,0.15069,0.25935,-0.52528,-0.19801,0.75755,0.079156,-0.30459,0.68585,0.71035,0.60233,0.28854,0.41868,-0.78702,-0.18454,0.34242,0.30466,0.3282,-0.91243,0.14194,-0.76994
-0.64615,-0.087666,0.41981,-0.7946,0.073058,0.64135,0.29535,-0.90061,-0.95696,0.41953,0.58145,-0.39113,-0.42588,-0.95108,-0.34197,-0.1176,-0.58268,0.71618,-0.44148,0.22109,-0.28579,-0.99028,0.2289,0.11439,-0.15935,0.011865,-0.44384,0.8223,0.0936,0.69558
0.17073,-0.92166,0.42451,-0.61031,0.98656,0.93081,0.25938,0.42108,0.92377,0.43135,0.65627,0.82446,-0.77348,0.085143,0.29982,-0.30693,0.38105,0.2996,-0.075886,0.25289,-0.32319,0.60729,0.51229,-0.51693,0.9292,-0.29149,0.15701,-0.14495,0.038254,-0.16828
-0.41766,-0.43647,-0.41378,0.72722,-0.79878,0.73607,0.94739,-0.81918,-0.096273,-0.932,-0.8708,0.62529,-0.18177,-0.3125,0.52095,0.82879,0.25206,0.46736,0.3497,-0.20526,-0.74291,0.60655,0.019375,-0.96412,-0.46764,-0.82884,-0.5924,0.18735,-0.29357,-0.65383
-0.68651,-0.80677,0.98309,-0.85843,-0.091594,0.26212,0.84751,0.60295,-0.32482,-0.71479,-0.0046666,0.17172,0.79638,-0.89005,0.48076,-0.31989,-0.15914,0.89841,0.98682,0.49039,-0.24067,0.40677,0.1033,-0.69182,-0.50542,0.29763,0.55085,-0.68864,-0.52318,-0.91091
0.031807,0.29198,0.062123,-0.21697,0.15005,-0.98267,-0.3467,0.10605,-0.54238,-0.68003,-0.71048,0.42082,-0.11797,-0.72706,0.71706,0.66267,0.48545,0.94293,-0.37947,-0.29012,-0.78923,-0.85358,-0.32089,-0.073572,-0.96553,0.83218,-0.39207,-0.68454,0.044055,0.75948
0.58326,-0.76116,-0.45711,-0.14332,-0.73693,0.067506,0.23419,-0.92332,0.5427,-0.93921,-0.017886,-0.5024,-0.094721,0.036246,-0.94133,-0.15213,0.47879,-0.083395,0.80178,0.6063,0.21358,-0.79223,0.42758,0.30514,0.25439,-0.24463,-0.40652,-0.99874,0.78762,-0.72901
-0.47109,0.22174,0.75036,-0.31866,-0.68688,0.7942,-0.2719,0.055522,0.4683,0.40923,-0.94835,0.79195,-0.51776,0.93045,-0.25984,-0.015766,0.086949,-0.47626,-0.24105,0.64735,0.94606,0.70142,0.20963,-0.072685,-0.03557,-0.18124,-0.50434,0.28635,-0.89951,-0.33471
0.1078,-0.21702,0.29668,0.81354,0.99925,0.22661,0.078105,0.81838,-0.64691,0.39143,0.37319,0.15619,-0.9875,0.41522,-0.84514,0.26526,0.29618,0.28303,0.57791,-0.2317,-0.019834,-0.84414,0.08717,0.47964,-0.059948,0.88079,0.85505,0.42854,-0.40993,0.74088
-0.26073,-0.70327,0.06021,0.64534,0.71276,-0.59432,-0.13023,0.65107,0.59498,-0.29155,0.62971,0.40255,0.10896,-0.62363,-0.6204,0.15839,-0.94463,0.56449,0.65461,0.18811,0.25384,-0.56375,0.13555,0.50369,0.87471,0.53021,-0.41103,-0.078317,0.66238,-0.27364
-0.37977,0.51166,0.36358,-0.20865,-0.71198,-0.64337,0.98474,0.41533,0.80168,-0.53439,-0.28039,-0.2473,-0.51333,-0.073195,0.66212,-0.73123,-0.46634,-0.66401,-0.96765,0.97904,0.17603,0.79234,0.085615,-0.92037,-0.16857,0.68479,-0.36696,0.52691,-0.73636,-0.40821
0.083831,-0.16352,-0.6817,-0.87062,0.43072,0.68651,-0.2097,0.16647,0.70798,-0.67498,0.81576,0.15879,-0.61774,0.99955,0.29166,-0.96273,0.42646,-0.36742,-0.878,0.34266,-0.020592,-0.98592,-0.19157,-0.45864,-0.16159,0.90538,0.35232,-0.85825,0.74483,0.27844
-0.59038,-0.14016,-0.33518,0.18023,0.61615,0.5516,0.55184,-0.71433,0.021971,0.93575,-0.80091,0.238,0.58261,0.18408,0.34334,0.98238,-0.09156,0.98411,0.31477,-0.93885,-0.27921,-0.35239,-0.32871,-0.34052,-0.27316,0.16126,-0.53593,-0.38058,-0.3536,-0.11759
-0.84125,-0.63844,-0.86313,0.49825,-0.53687,0.29963,0.73474,-0.037819,-0.2379,0.134,-0.4272,-0.14202,-0.37968,0.26516,0.53313,0.34293,0.032939,-0.49266,-0.11668,0.3815,0.86861,0.52483,0.13508,0.75854,-0.51733,-0.72049,0.28979,-0.20014,0.017103,0.13342
0.18947,-0.42556,0.068127,0.41261,0.75978,-0.7462,0.465,-0.49854,-0.7534,-0.81084,0.45868,0.34611,0.90159,0.82035,0.70372,-0.0010978,0.38137,0.48757,-0.39157,-0.79112,-0.61563,0.76864,-0.97252,0.39136,0.85772,-0.33452,0.55036,-0.085319,0.17815,-0.44867
-0.7438,0.50306,0.17096,0.27855,-0.11798,-0.58342,-0.23337,0.48842,-0.71554,-0.84089,-0.16198,-0.15234,-0.83282,-0.012386,0.43603,-0.5564,-0.76674,-0.91597,-0.17312,0.49744,-0.56916,-0.67458,-0.40433,-0.36784,-0.58909,-0.096275,0.39929,0.82126,0.50528,0.097288
0.51408,-0.80019,0.4892,0.76653,-0.083373,0.49031,-0.16812,-0.40882,0.23464,0.6255,-0.51691,-0.051064,0.13874,0.22524,-0.79067,-0.42886,-0.076828,-0.0059713,-0.084177,0.044651,-0.037957,-0.20564,-0.7368,0.10799,0.58962,0.30374,0.17575,-0.77747,-0.83234,0.87964
-0.78246,-0.95571,-0.99222,0.34833,-0.0079208,-0.90566,-0.50787,0.58258,-0.84036,0.076298,0.65006,-0.53191,0.6531,0.28473,0.32756,0.09615,-0.9117,0.94539,0.80599,-0.91175,-0.55859,-0.64197,0.25872,0.6827,0.446,-0.17635,-0.72089,-0.034635,0.58658,0.42951
0.15414,0.30075,0.76573,0.32821,-0.046316,0.82897,-0.47989,-0.42595,-0.33105,0.4825,-0.29135,-0.27979,0.69819,0.15513,0.89013,0.77351,0.19229,-0.52105,0.67011,0.14791,0.25339,0.73722,0.401,0.95251,-0.61215,-0.5759,-0.17355,0.79728,0.63185,0.96787
-0.6526,-0.7751,-0.11243,0.39391,0.32995,-0.25584,-0.62419,-0.72336,-0.29594,0.82669,0.14202,-0.27218,-0.80087,0.36296,-0.90347,0.13801,-0.80393,-0.84526,0.21934,0.38482,-0.97832,0.50642,-0.98717,-0.28341,0.6769,0.10712,0.1675,-0.5723,0.031233,0.72927
0.7668,0.40613,0.82643,0.13623,0.8106,-0.26532,-0.94488,0.63226,-0.18154,0.96775,-0.25321,-0.11436,0.53064,0.67033,0.97021,-0.89946,0.55783,0.68313,-0.86095,-0.23879,-0.30785,0.5327,-0.8646,0.017946,-0.94166,0.90618,-0.23741,-0.69008,0.9762,-0.021157
-0.66867,-0.095861,-0.77251,-0.96226,0.68942,-0.79306,0.47738,0.86784,0.03952,-0.5918,-0.30365,0.38933,-0.28815,-0.78982,0.67902,-0.9724,-0.83431,-0.08301,-0.51311,0.23758,0.51563,0.20296,-0.34995,-0.80662,-0.95277,-0.081728,0.54857,-0.3135,-0.86328,-0.33767
0.10166,0.54659,-0.25183,0.0046291,0.66121,0.24495,-0.85641,0.22895,0.78756,0.99498,0.35592,0.15956,-0.12638,-0.67274,-0.64831,-0.36139,0.82833,-0.42524,0.24925,-0.50828,0.11478,0.81854,-0.35694,-0.13893,0.10654,0.33955,0.75401,-0.21059,0.75317,-0.8862
0.3987,-0.21086,-0.68127,0.31414,-0.54188,0.65946,0.87322,0.30422,0.2729,0.98511,-0.45864,0.67752,0.27319,0.55167,0.5204,0.50265,0.52901,-0.64776,-0.44563,-0.89111,0.20502,0.17009,0.92303,-0.92386,-0.69291,0.0033244,0.24655,0.59405,-0.0078959,-0.15711
0.47433,-0.23176,-0.59005,0.068691,-0.03575,-0.029618,-0.23461,-0.24611,-0.57858,0.74495,-0.66928,0.74531,0.81427,0.55753,-0.6616,-0.78613,-0.11534,-0.29291,0.42498,0.23577,0.033131,0.81822,-0.20299,0.29193,-0.24992,0.55256,0.1318,0.29434,-0.31755,-0.9276
0.45105,-0.40366,0.31091,-0.74512,-0.079773,-0.96162,-0.019713,0.90638,0.99505,0.0027076,0.92082,-0.01911,0.71754,-0.19173,-0.29362,-0.20713,-0.11474,0.55529,0.91316,-0.019444,-0.3089,0.93159,0.11421,-0.42293,0.5688,0.64897,0.075748,0.11618,0.9278,-0.78325
0.26115,-0.70978,-0.00047697,0.532,0.025866,-0.40802,0.28103,-0.83878,0.11891,0.37357,-0.50457,-0.2379,-0.85728,0.34998,-0.46724,-0.62815,0.39161,0.95312,-0.91387,0.78486,-0.72819,0.028667,0.42921,0.41127,0.54236,-0.12611,-0.12332,0.088405,-0.65926,-0.22654
0.17676,0.33874,-0.35405,-0.13835,0.47682,0.32533,0.70655,-0.90546,-0.44222,-0.16791,-0.25151,-0.50249,-0.10879,0.1973,0.98986,-0.65873,0.27027,-0.16999,-0.72555,0.63172,-0.073421,-0.30135,-0.24861,-0.4613,0.88436,-0.61125,-0.33061,-0.62788,-0.86272,-0.80104
-0.61995,0.30619,-0.081612,-0.21008,-0.10274,-0.61548,-0.22766,0.60996,-0.27997,-0.51771,0.4311,-0.66896,0.89963,-0.98639,-0.043495,0.44814,-0.43149,0.052956,0.68004,0.76531,-0.16751,0.069548,0.83413,0.053186,0.008904,-0.25425,0.6664,-0.1353,0.73685,-0.61873
-0.52005,0.90787,0.084257,0.14939,0.18965,-0.94991,-0.59621,0.6558,0.017269,0.36399,0.89676,-0.8365,0.33221,-0.59972,0.85848,-0.055032,-0.86182,-0.028176,0.069083,0.43573,0.54821,-0.6057,0.04742,-0.85614,0.53096,-0.8981,-0.4522,-0.39348,-0.65839,0.17988
-0.75047,-0.96411,0.91772,-0.34992,0.48119,0.099566,0.42179,0.068301,-0.40329,-0.2444,0.6771,0.1886,-0.073403,-0.072366,-0.42658,-0.39788,0.22217,0.4454,-0.99873,-0.11187,-0.88884,0.76699,-0.8079,-0.78603,0.24844,-0.92437,0.071082,0.7828,0.33098,-0.24737
0.42545,0.4868,-0.29622,0.20299,-0.62366,-0.2131,-0.20605,-0.95134,0.13601,-0.48487,-0.10062,-0.75049,-0.32795,-0.62947,-0.8787,-0.60526,0.52587,-0.567,0.66224,0.82362,-0.35474,-0.25543,-0.37172,0.15582,-0.42462,0.14659,-0.51322,0.0076211,0.26686,-0.42672
-0.59966,0.69435,-0.822,-0.43179,-0.66077,0.53765,-0.94514,-0.11772,-0.46066,0.35117,0.78287,-0.81308,-0.088618,0.037842,0.63528,0.21379,0.0071803,0.058338,0.23324,0.73007,-0.48025,0.85047,-0.58592,0.50509,-0.035317,-0.15217,0.979,-0.77381,-0.68637,0.95469
0.15057,-0.94749,-0.25235,0.12095,0.46863,-0.12583,-0.75267,0.42767,-0.97319,-0.94974,-0.58058,0.044401,0.95736,0.080961,0.070568,0.22246,0.90493,0.36672,-0.12875,0.23025,0.50769,0.6368,-0.60239,0.41859,-0.18464,0.37688,0.44594,-0.12852,-0.84201,-0.31357
0.56869,-0.088347,-0.32861,-0.96423,0.77813,0.12843,-0.92392,-0.56381,0.68323,0.78658,-0.43357,-0.31529,-0.12384,-0.11157,-0.34217,0.41225,0.01469,-0.54992,0.4804,-0.57758,-0.3803,0.017148,0.8005,0.54011,-0.36232,-0.74475,0.64523,0.88908,-0.69579,0.58429
0.52687,-0.78913,-0.46324,-0.25799,0.19279,-0.44322,-0.51546,-0.57516,0.39009,-0.16678,0.52382,0.98799,-0.08842,0.92477,0.74122,-0.45789,0.88285,-0.85352,0.37228,0.38017,0.1091,0.75946,-0.84205,-0.30341,-0.08504,0.49807,0.43245,0.43933,0.84646,-0.21098
0.73503,0.56379,0.24337,-0.51408,-0.29969,0.36024,0.68722,0.25604,-0.88092,-0.35368,-0.17414,-0.082224,-0.92828,-0.51457,0.63132,-0.41912,0.29111,0.64815,0.56622,-0.42447,-0.61514,-0.1237,-0.095004,0.31673,0.99535,-0.28643,0.39487,-0.28331,-0.47172,0.26822
-0.93196,-0.019549,0.56351,-0.4925,-0.014436,-0.28842,-0.025342,-0.21363,0.25414,0.7421,-0.82211,-0.86237,-0.70125,-0.11506,-0.044733,-0.44132,0.98307,0.73081,0.90864,0.84393,-0.13841,-0.95312,-0.0071683,0.16063,-0.88356,-0.25108,0.28695,0.18367,0.54745,-0.056555
-0.30338,0.8869,-0.72255,0.14389,-0.25875,0.99006,-0.65632,0.31357,-0.7761,-0.41109,0.13939,-0.2512,0.66995,0.77783,0.82421,0.87443,-0.49771,-0.88837,-0.38214,0.8575,0.80843,-0.59095,-0.26676,0.71641,0.077666,0.56802,-0.74026,0.72682,0.44819,0.83329
-0.80858,0.76465,0.53101,-0.98068,-0.83067,-0.87793,0.69518,-0.9241,-0.45232,0.029789,0.75575,-0.24718,0.18198,-0.028139,0.3775,0.38175,0.42182,-0.53341,0.9182,0.077996,-0.62675,0.54982,-0.84367,-0.20276,0.83078,-0.013934,-0.26786,0.94736,-0.26819,-0.22338
0.064824,0.63129,-0.29514,-0.78103,-0.62575,-0.47032,-0.88471,-0.01734,0.26897,0.44311,-0.67215,-0.31707,0.21671,-0.092969,-0.76862,0.3176,0.49712,-0.066378,-0.78428,0.4516,-0.19341,0.71478,-0.54656,-0.65325,0.63762,-0.30631,0.24431,0.40999,-0.08757,0.50392
0.67461,0.78707,-0.056662,0.72893,-0.26996,0.62673,0.052658,-0.44989,-0.43349,0.20186,0.67763,0.98706,-0.66628,-0.034929,-0.75802,-0.25803,-0.22613,0.015683,0.90281,-0.044777,0.67411,-0.30981,0.66715,-0.70567,0.27541,-0.27743,0.15793,0.62125,-0.92612,-0.31005
-0.30121,0.35288,0.33215,-0.81167,-0.0067312,-0.1109,-0.093252,0.50476,-0.81004,-0.34776,0.38787,-0.59531,-0.7426,-0.95241,-0.24947,0.79233,-0.84003,0.66185,-0.13393,0.547,0.91621,0.84778,-0.46816,0.29683,0.70122,0.44756,0.99523,0.21306,-0.050876,0.18864
0.090563,-0.44996,0.01999,0.36028,0.84637,-0.77589,0.71992,0.96652,-0.21415,0.049563,0.5688,-0.13685,-0.29457,0.97533,-0.38691,0.21028,0.40736,0.10534,-0.74467,0.16282,0.42805,0.68426,0.51337,0.59411,0.78954,0.97756,0.96033,-0.61339,0.14501,-0.83764
0.017027,0.49609,-0.63177,-0.71199,0.89527,-0.29391,0.45819,-0.98445,-0.82818,-0.59872,0.3686,-0.034267,-0.88882,-0.92338,0.29468,-0.13875,-0.44324,0.32252,0.71074,-0.95706,0.17184,0.2794,0.57772,0.58076,-0.066037,-0.88656,0.65116,-0.40895,-0.28671,0.5668
-0.65077,-0.12333,0.64521,0.46009,-0.80798,0.646,-0.68177,0.53839,0.82085,-0.062263,-0.90294,-0.77405,-0.31987,-0.0805,0.07184,0.33205,-0.70707,-0.86712,0.15833,-0.50107,0.23931,0.74721,-0.15418,-0.11578,0.35986,-0.28559,0.83992,-0.048733,0.83081,0.16016
-0.38035,-0.2486,-0.27102,0.12106,-0.10914,0.12255,-0.1656,-0.36198,-0.3337,-0.0064603,0.47455,-0.93485,0.12098,0.72572,0.26628,-0.84517,-0.047209,0.47308,0.79985,-0.60649,-0.6308,-0.89895,0.8997,0.068211,0.47687,0.18287,0.24547,-0.13252,0.3957,0.9014
-0.62668,-0.055603,0.11208,-0.51907,-0.13614,-0.89069,-0.69628,-0.062237,-0.35408,-0.20168,-0.28231,0.83652,-0.51372,0.67907,-0.046588,0.076418,0.02863,-0.64894,-0.85851,-0.32974,-0.96773,-0.12607,0.11981,-0.98363,-0.87911,0.35813,0.85838,0.67128,-0.54809,0.65895
0.47896,0.016619,0.33612,0.60692,-0.43728,-0.14095,0.77698,-0.044217,0.13808,0.46729,-0.60659,0.8651,-0.14197,-0.12004,0.90193,-0.74982,-0.58172,-0.52391,0.55104,0.56586,0.048794,0.13922,0.57171,-0.75479,0.41729,0.18474,0.0085708,0.023119,-0.31704,0.65833
-0.054331,-0.67521,0.087065,-0.56198,0.97107,0.92193,0.20317,-0.14226,0.74591,-0.62087,-0.13629,0.39849,0.96339,-0.23404,0.17696,0.19312,0.88839,-0.92565,-0.40906,-0.11932,-0.022354,0.29009,-0.78834,-0.39923,0.087191,-0.48701,0.89163,-0.72301,0.36069,-0.52286
0.86298,-0.9038,-0.99854,0.55291,0.5955,0.23155,-0.88694,0.11326,-0.041189,0.9438,0.30084,-0.57273,0.28342,-0.072382,0.5505,-0.58334,-0.6235,0.50827,-0.043477,0.28421,-0.18736,0.95554,0.8052,0.21022,0.7896,-0.48458,0.85874,0.9026,-0.73868,-0.94746
0.8723,-0.30709,-0.82938,0.60946,0.18719,-0.67053,-0.98643,0.97358,0.74603,0.69479,-0.6892,-0.70948,0.13606,0.37313,-0.90511,-0.9791,0.51244,-0.65226,-0.27667,-0.44929,0.1236,0.29756,-0.56553,0.42935,-0.53488,-0.078075,0.48888,-0.05486,-0.1402,-0.51671
0.7006,-0.66008,0.62713,0.3592,0.041943,0.51749,-0.9995,-0.3803,0.75799,-0.58844,0.68937,0.73076,0.62173,0.59876,-0.79924,-0.88953,-0.76525,0.35859,-0.40117,-0.75126,-0.94738,-0.71362,-0.7833,-0.43721,-0.946,-0.46693,-0.29154,0.63794,-0.80272,0.16399
-0.73821,-0.083067,-0.5483,0.057082,0.40141,-0.34756,0.8175,0.43193,0.88694,0.091213,-0.87854,-0.31688,0.13887,-0.77493,0.25799,0.72653,0.80139,0.29494,-0.033185,-0.46783,-0.77869,0.55894,-0.23069,-0.14119,-0.66327,0.37664,-0.080587,0.68342,0.45092,-0.58493
-0.80686,-0.27717,-0.33005,0.22747,0.13887,0.34801,-0.29897,-0.081803,-0.80164,0.65331,-0.61443,0.97204,-0.79687,-0.81796,-0.67009,-0.33375,-0.6235,-0.10125,0.46972,0.83981,-0.96214,0.083336,-0.75609,-0.29237,-0.022638,-0.66126,-0.72072,-0.74451,0.49506,0.15009
-0.6122,0.27647,-0.55134,-0.79138,-0.48008,-0.3013,-0.12756,-0.18791,-0.28757,-0.40895,-0.41981,0.79465,-0.6003,-0.3848,0.025072,0.19091,-0.82385,0.51283,-0.55247,-0.88973,0.85778,-0.11272,0.78222,-0.035905,0.72329,-0.50053,0.4514,-0.97165,-0.088457,-0.35842
0.68738,0.52001,0.65932,-0.17889,0.85426,0.11251,0.57743,0.69324,0.81436,0.71159,-0.80038,-0.95448,0.43432,-0.81468,-0.45589,0.97119,-0.47251,0.33018,-0.67841,-0.19175,0.092089,-0.90797,-0.76477,-0.83827,0.79579,0.43075,0.26041,-0.13565,-0.30831,-0.62705
0.23982,-0.53106,0.75225,-0.87322,0.69568,-0.7558,-0.80666,-0.2784,0.69735,0.018508,0.14166,-0.83848,-0.39176,0.28657,-0.71077,0.23285,0.78762,-0.93503,-0.0045088,-0.63838,-0.46079,-0.59891,-0.052641,-0.33122,-0.99389,0.21282,0.44509,-0.08527,0.54416,-0.20571
-0.58045,-0.69949,-0.595,0.8306,0.15325,0.71661,0.52979,0.69018,-0.77813,0.51269,-0.15517,0.75549,-0.010789,0.9822,0.75208,-0.28218,-0.20769,-0.28996,-0.39634,-0.013696,-0.16017,0.7099,-0.91247,-0.78444,-0.94803,-0.65401,-0.87032,-0.22919,-0.043796,0.06334
0.036356,-0.75589,-0.40491,0.12645,-0.8363,-0.97697,0.23458,0.65399,-0.94973,0.53436,0.16963,-0.1425,0.14507,0.19104,0.64405,-0.82748,0.37758,0.98734,-0.32635,-0.62046,0.28899,0.78083,0.91377,-0.51282,-0.21474,0.66181,-0.96551,-0.21136,-0.95172,0.58006
0.98658,0.12216,-0.51614,0.096562,-0.32926,-0.049299,-0.35339,0.17601,0.19102,-0.52064,-0.73122,-0.78053,0.21743,-0.27394,-0.11721,0.73362,0.57476,-0.93672,-0.052858,-0.98285,-0.60879,-0.4219,-0.54547,0.22079,-0.33981,0.68889,0.86262,-0.92419,0.4831,0.20211
0.80248,-0.70594,0.17039,0.46664,0.45683,0.41401,-0.80378,-0.51054,-0.02205,0.67748,0.020692,-0.26017,0.35672,-0.052487,0.1427,0.89461,0.23068,-0.22594,0.84874,-0.54321,-0.76219,0.18817,0.33893,0.81452,0.26611,0.37389,0.072375,0.59962,-0.37084,-0.99951
0.078151,0.091705,-0.60923,-0.95868,0.95288,0.98394,-0.71001,-0.14955,-0.93802,-0.25339,0.36832,-0.25063,-0.84091,0.25046,0.034481,0.38215,-0.69793,-0.4072,-0.4074,0.83283,0.17063,-0.50975,-0.45261,0.55672,-0.61859,0.058252,-0.98586,-0.32024,-0.30766,0.56616
-0.25715,-0.91007,0.22423,0.66378,-0.6444,-0.41065,-0.71825,0.5136,0.48362,-0.7101,-0.90325,-0.88909,0.91934,-0.90219,0.25558,0.20111,0.62004,0.43218,0.96059,0.82085,0.39076,-0.73708,-0.68377,0.13384,-0.40935,0.41449,0.19383,-0.62808,-0.89721,-0.43162
-0.61427,-0.45848,-0.35721,0.052366,-0.45097,0.028223,-0.40062,0.52104,-0.47154,-0.94568,0.58088,-0.25519,0.50467,-0.62893,0.7766,-0.74645,-0.08757,0.72102,0.79606,-0.42996,-0.60958,0.25871,-0.66423,-0.14916,0.55613,-0.90728,-0.63733,-0.71129,0.10559,-0.94036
-0.33541,-0.37556,0.26664,0.43187,0.94135,-0.43422,0.2562,0.021169,0.051507,0.58041,0.50553,-0.30263,-0.7343,-0.4891,-0.31092,-0.26033,-0.4969,0.10273,-0.76197,0.44166,0.56333,0.70857,-0.2697,0.633,0.96738,0.66364,-0.75913,0.88647,0.67141,0.12602
-0.51832,-0.6019,0.45235,0.36667,0.52927,-0.54568,0.38508,-0.092673,-0.05,0.1832,0.43705,0.22248,0.41024,0.95117,-0.13882,0.94783,0.98817,-0.37509,-0.89553,0.039959,-0.59241,-0.82312,0.51683,-0.4217,0.058121,-0.97636,-0.27331,0.0025673,0.18171,-0.97622
-0.68658,0.53603,-0.10496,0.74432,-0.71017,0.88621,0.90837,0.044054,0.28136,-0.58184,-0.36578,-0.22828,-0.12551,0.72197,0.94711,0.27921,-0.38462,-0.62784,-0.79302,-0.30518,-0.58122,-0.19027,0.87901,-0.60378,0.71571,-0.81348,0.89465,-0.50872,-0.73248,-0.10219
0.43451,0.03422,-0.65056,-0.54083,0.51992,-0.53653,-0.64201,-0.78213,0.96911,0.10913,-0.26443,-0.61349,-0.75965,0.8679,0.59684,-0.2309,0.83445,-0.36959,0.90376,-0.65241,0.89019,0.81535,-0.29511,-0.15141,-0.48394,-0.56127,0.41166,-0.43468,-0.19825,-0.16864
-0.796,-0.87804,0.98725,0.8828,-0.32337,-0.25474,0.058355,-0.65826,0.50221,0.41054,-0.93177,-0.84204,-0.23745,-0.76186,-0.091314,-0.53946,-0.3837,-0.024211,-0.73606,0.27733,-0.73745,-0.9121,-0.11068,-0.8682,0.059139,-0.64795,-0.10854,-0.93945,0.40728,-0.97034
-0.22541,0.55239,0.25978,-0.94381,0.78957,0.17616,-0.41313,-0.15528,0.22851,0.92368,-0.84953,-0.54504,0.38648,-0.64711,0.069891,0.23869,-0.89461,-0.96421,0.49463,0.96448,0.936,-0.98026,-0.46699,-0.63021,-0.79761,-0.48146,-0.82341,0.51243,-0.73159,0.94031
0.072984,-0.44686,0.63451,-0.086723,-0.25866,0.7864,0.35677,0.84812,0.33788,0.77504,0.0027308,0.56989,0.080198,0.19804,-0.47622,-0.49162,-0.76736,0.26361,-0.47823,-0.56852,0.4278,0.92352,-0.34953,-0.57693,-0.15329,0.66767,0.81095,-0.69252,-0.60796,0.7838
0.1602,0.15332,0.99002,-0.82892,-0.69191,0.19919,-0.4886,-0.35653,0.58115,-0.76962,-0.048046,-0.82945,0.76592,-0.74684,0.97537,0.7233,-0.026216,0.50903,0.55362,0.41108,0.83225,0.64968,-0.016715,-0.43264,-0.71031,-0.90319,-0.91654,-0.78164,-0.4204,-0.098829
0.745,0.27046,0.018895,0.69541,-0.34256,-0.16652,0.042519,-0.67344,0.74899,0.26209,0.50544,-0.22714,0.69221,-0.5027,-0.15488,0.23336,0.34224,0.069593,-0.22105,-0.1357,0.92616,0.10634,0.63449,0.70477,-0.19918,0.55148,-0.61069,0.88966,0.095257,0.74078
-0.51352,0.50312,-0.44693,-0.042372,0.27158,0.88775,0.68532,-0.11339,0.36308,-0.28253,-0.023437,0.89156,-0.68898,-0.23974,0.22426,0.50772,0.97696,-0.36256,-0.51691,-0.10414,0.34113,0.57587,-0.80367,0.58255,0.69448,-0.39386,0.71897,-0.65627,0.83199,0.70375
0.73481,0.071314,0.81522,-0.92971,-0.084113,0.55189,-0.29911,0.49994,-0.94697,0.58028,-0.044872,-0.23169,-0.5075,0.99643,-0.73484,-0.21417,0.98844,0.22833,0.15993,-0.54061,-0.93987,0.69197,-0.83257,0.081375,-0.79769,0.0066595,-0.16038,-0.97069,0.68097,0.78408
0.14084,-0.64165,-0.27573,-0.85439,-0.65459,0.60085,-0.30385,-0.073173,-0.64169,0.89399,-0.91889,-0.085405,-0.68369,0.86303,0.94128,0.47811,0.96595,-0.30648,-0.71389,-0.49634,0.93934,0.11685,-0.9526,-0.65366,0.41583,0.46752,-0.36695,0.96226,-0.17184,0.036693
0.63941,-0.61672,0.82769,0.26882,-0.43214,-0.66358,-0.96941,0.20477,-0.99253,-0.66931,-0.84276,-0.18174,-0.46958,0.32434,-0.25167,-0.37313,0.2631,-0.11919,0.90453,0.068135,-0.94054,-0.13799,0.24938,-0.95729,0.14437,0.41677,-0.86831,0.62686,0.2423,-0.74076
0.64198,0.82839,-0.88634,0.99339,0.30773,0.88448,0.063759,-0.15039,0.88122,-0.063496,-0.52316,-0.74564,-0.86682,0.59227,-0.63432,-0.32856,0.20036,0.92342,-0.057732,-0.0011729,0.85475,-0.046481,-0.72185,-0.0016231,0.30545,-0.42543,-0.98191,0.47336,-0.93211,0.74012
-0.83269,-0.94837,0.071713,0.84583,-0.47903,0.65789,-0.13743,0.46885,-0.10347,0.27462,-0.066654,0.16939,0.028471,-0.21434,-0.23569,0.25945,-0.61915,0.29208,-0.96855,0.0081042,0.21848,-0.96481,-0.95313,0.85631,0.61167,0.083359,-0.86719,0.048341,0.46098,-0.42963
-0.34304,-0.65414,-0.99833,-0.72604,-0.015307,-0.30262,-0.49541,-0.66266,0.66911,-0.12446,0.43895,-0.26302,-0.88543,-0.99543,-0.002133,0.71297,0.43841,-0.60377,0.34543,0.50041,-0.21825,-0.24537,0.73285,0.32925,-0.38191,-0.0064294,0.2717,0.89554,-0.27406,0.39864
0.19816,0.53206,-0.62877,-0.1629,-0.99271,0.71038,-0.69268,-0.13351,-0.79193,0.0019079,-0.41395,0.81144,0.89953,0.37193,0.52012,-0.89504,-0.76555,0.66439,-0.38691,-0.59554,0.87307,-0.16189,-0.90149,0.25752,-0.76452,0.60764,-0.69846,-0.43677,-0.1108,0.75262
0.51865,-0.00096623,0.78908,0.36192,-0.90268,0.79827,0.78454,0.50118,0.50289,-0.35077,0.8953,-0.62213,-0.44188,0.034108,-0.91061,0.31125,-0.83416,-0.51579,-0.96585,-0.40923,-0.21333,-0.55699,0.69725,0.045264,-0.80778,0.07258,-0.14239,0.41858,0.66825,0.56324
-0.96999,-0.89883,-0.50735,-0.52261,0.39621,-0.48385,0.96858,0.84842,-0.64815,0.54264,0.9053,0.86914,0.42559,-0.62836,-0.57737,0.058642,0.64481,-0.66209,-0.70365,0.56238,-0.71442,-0.79652,-0.69297,-0.84668,0.86767,0.26618,-0.052764,0.52805,-0.87086,0.18796
0.58666,-0.55863,-0.0088347,-0.53145,0.30542,-0.10602,0.89607,-0.86102,0.56481,0.05158,-0.774,0.16852,-0.23938,-0.56446,0.11995,-0.42378,-0.54551,0.19065,-0.7906,0.37889,0.31965,-0.485,0.4382,-0.65041,0.14404,0.86928,0.34426,0.4776,0.54387,-0.58064
0.6743,-0.36011,-0.4596,-0.056771,0.3682,0.28124,-0.50823,0.1455,0.96668,0.59141,-0.29411,-0.56557,-0.39816,-0.45191,0.21205,0.52413,0.68939,0.23205,0.98607,-0.68622,0.098265,0.76454,-0.47947,0.49581,0.68084,-0.31268,-0.51803,0.855,-0.34367,0.11337
-0.15941,0.0029193,0.54678,-0.8855,0.11308,0.53238,0.93585,-0.6832,0.2378,-0.30799,-0.41871,-0.091145,-0.055299,0.4585,-0.72199,-0.64871,-0.78459,0.39528,-0.68507,0.82096,0.10971,-0.99379,-0.82981,0.090129,0.20876,-0.61005,0.32265,0.32036,0.60235,0.69216
-0.54916,0.77127,-0.64994,-0.29905,0.27783,0.98127,-0.28721,0.68968,-0.46117,-0.60316,0.97498,-0.70718,-0.74862,0.49529,0.51431,0.99155,0.99665,0.33981,0.53561,-0.9816,0.43587,-0.55618,-0.91985,0.75691,-0.24004,-0.23376,-0.2805,-0.35924,-0.98604,-0.38363
-0.29443,0.5483,-0.76624,-0.49275,-0.50661,0.20892,0.29353,-0.16939,-0.26742,-0.45874,0.049795,-0.40437,-0.38826,-0.073307,0.27123,0.19552,0.77627,0.73122,0.13991,-0.90163,0.87294,0.41941,-0.64486,0.39301,0.80072,0.099692,-0.89154,-0.25285,0.31558,-0.98123
0.42372,0.57312,0.26345,-0.77443,-0.47194,-0.19993,0.82698,-0.86764,-0.97327,0.85542,0.41646,-0.51258,0.51672,-0.7118,-0.66156,0.53155,0.28363,0.2699,-0.57286,0.13356,-0.25667,0.22573,-0.32361,0.86835,-0.08628,-0.46102,-0.21672,-0.33186,0.65468,0.4839
-0.66284,0.34932,-0.053497,-0.93018,-0.62304,0.41843,-0.83744,-0.97576,-0.71469,-0.078387,-0.9812,0.56891,0.96831,0.60903,0.21293,0.19383,0.29357,0.73282,0.48374,-0.29717,0.62307,-0.59022,-0.62745,0.19157,0.22148,-0.28433,-0.50033,0.1037,0.021415,0.48812
0.63187,0.30425,-0.25598,-0.46798,0.55488,-0.75619,0.11168,0.21239,0.98561,-0.81586,0.93733,0.13855,-0.39621,0.29793,0.47265,-0.40392,0.78523,-0.78414,-0.13635,0.6108,-0.89786,0.72876,-0.20425,-0.46268,0.83377,-0.88268,0.8067,0.85022,-0.58645,0.51371
-0.84352,0.91103,0.34371,-0.054782,-0.0069905,0.9685,-0.42596,0.44838,0.43597,0.89093,0.79046,-0.40286,-0.42722,-0.81175,0.65741,0.83986,0.72081,-0.99715,0.84462,-0.41081,-0.81368,0.97904,-0.98181,0.34533,0.54018,0.87979,-0.90189,-0.60732,-0.86826,0.1083
0.3191,-0.38116,-0.43199,-0.34559,0.89829,-0.69348,0.93506,0.34642,0.7331,-0.49836,0.14955,0.77739,-0.84714,-0.31746,-0.080106,0.24968,0.80911,-0.85972,-0.91523,0.59427,-0.14964,0.81889,-0.46756,-0.34301,0.2725,-0.55259,-0.94985,-0.82905,-0.78323,-0.20119
0.83144,-0.59043,-0.54563,-0.41712,0.77724,-0.81758,0.07796,0.33446,0.75933,-0.28479,-0.12708,0.68095,-0.84836,0.81401,0.90785,-0.44241,0.63184,-0.17441,0.068812,-0.56137,0.15874,0.35754,0.42939,0.94163,-0.60084,0.42981,0.98284,0.42586,0.45722,0.47853
0.087974,-0.57256,-0.23622,-0.17401,0.23646,0.77993,0.67463,-0.5864,-0.71874,-0.79021,-0.20514,0.8352,-0.83309,-0.93471,-0.32728,0.11081,-0.92848,-0.78531,0.81642,0.63992,0.62371,-0.090769,-0.76473,-0.6904,0.51487,0.50676,0.71431,0.55515,-0.3245,0.26671
-0.40764,0.86133,0.87064,-0.056611,-0.98763,0.85799,-0.38596,0.9965,0.76113,0.26234,-0.90019,0.43429,-0.9895,0.41785,-0.081453,0.041476,-0.5869,-0.69602,0.14141,-0.88067,-0.77378,-0.19406,-0.10837,0.40787,-0.98045,-0.69867,-0.052289,0.69425,-0.091788,-0.65267
0.97016,-0.79153,0.60858,-0.20597,-0.43396,0.87707,0.94929,0.5306,-0.56161,0.75633,-0.2911,0.74507,-0.40389,-0.28003,-0.069971,0.25675,-0.18634,0.87289,-0.28041,-0.072649,-0.79474,0.087007,0.045462,0.099557,0.58928,0.17191,0.42897,0.53536,-0.78975,0.47982
-0.63262,-0.34196,0.92825,0.83987,0.43164,0.13702,0.38465,-0.96353,-0.75436,0.013275,0.90069,-0.2343,-0.87199,0.4094,-0.11046,0.22405,0.36913,-0.95733,-0.41034,-0.97213,-0.599,0.11077,-0.27002,0.75094,0.42481,-0.82638,0.71665,-0.79456,0.00075988,-0.99919
-0.85991,0.24062,0.8881,0.18207,0.65974,0.68746,0.52351,-0.8139,-0.69725,0.5106,-0.012356,0.7253,-0.12138,-0.055145,0.56093,-0.29585,0.18739,-0.79237,0.59341,-0.73192,0.58935,-0.87315,-0.45093,0.46899,0.17603,0.46756,-0.59945,-0.95316,-0.53562,0.074931
-0.060214,-0.056255,0.68677,0.70172,-0.042068,0.2391,0.12111,0.62753,0.59141,-0.92534,0.53737,-0.94113,0.12297,-0.76137,0.94841,-0.67092,-0.53846,-0.86098,0.15251,0.14998,-0.58213,0.076961,-0.0075045,-0.63717,-0.11822,-0.075673,-0.30645,0.45083,-0.72131,-0.021017
-0.57121,0.42432,-0.73291,-0.30648,-0.92095,-0.32562,-0.43311,0.77682,-0.14373,0.076421,-0.67025,0.42495,0.34469,-0.66881,-0.72246,0.53635,-0.30105,-0.96027,0.26784,0.67796,0.60076,-0.91878,0.71463,0.79623,-0.99265,0.042834,-0.62783,0.43937,0.20227,-0.5669
-0.17338,0.20102,-0.76738,-0.9496,-0.9092,0.69265,-0.97921,-0.99626,0.16206,-0.99942,0.95465,-0.89793,0.87421,-0.81012,-0.51177,-0.6278,-0.676,-0.92811,-0.89519,-0.054336,4.8557e-05,0.47685,0.18511,0.80076,0.48056,-0.14146,0.24655,-0.50089,-0.68525,0.79925
0.84957,-0.41747,-0.8754,-0.31068,-0.85209,-0.054018,-0.95332,0.062528,0.87929,0.08651,0.73123,0.83265,0.61247,-0.82783,0.75144,0.86363,-0.43363,-0.2413,0.0674,-0.6939,0.039024,-0.54436,0.58248,0.046132,-0.28587,-0.35474,0.18314,-0.091102,0.19174,-0.72389
-0.20409,0.81886,-0.88247,0.551,0.58002,0.51687,-0.27444,0.1341,0.067636,0.51653,0.82451,0.67566,-0.76514,0.2908,-0.13309,-0.74799,-0.83927,0.32971,0.99706,0.23183,-0.48027,-0.30791,-0.74426,-0.58522,0.52728,0.94034,-0.99432,-0.32986,0.90818,0.70826
0.15964,0.0033315,-0.89514,-0.44042,0.61546,-0.51017,0.55625,0.15288,0.59918,-0.5929,-0.0046843,-0.99834,-0.09171,0.51581,0.3987,0.08809,-0.0098558,-0.11087,-0.53712,-0.59637,0.96227,-0.77568,0.78872,0.40891,0.28507,0.74715,-0.21785,-0.084861,0.51733,-0.10038
0.0043124,0.65639,0.46605,-0.23012,0.55961,-0.35083,0.0097479,-0.71553,0.42281,-0.9982,0.029131,0.10492,0.79174,0.03245,-0.79786,0.85533,-0.94779,0.076738,0.30608,-0.8463,-0.34954,-0.58643,0.80206,-0.35465,0.38553,0.56565,0.82176,-0.93824,0.89972,-0.0045317
0.27191,0.69405,-0.3061,-0.58172,0.91815,-0.21499,-0.60904,-0.20502,0.36096,0.52175,0.66584,0.19947,-0.22816,-0.4496,0.44501,-0.42585,-0.76921,0.34657,-0.57024,-0.058672,0.87136,0.51246,-0.44594,-0.68679,0.43606,0.22354,-0.23831,0.55511,-0.2921,-0.91077
0.8318,-0.08168,0.42202,-0.23123,0.71988,0.46055,0.12243,-0.96865,-0.57241,-0.42487,0.21509,-0.35299,0.90473,0.46129,0.37352,-0.11807,-0.74614,0.87271,-0.27846,0.18906,0.72253,-0.19859,-0.84736,0.83187,0.52866,-0.52762,-0.45235,0.57812,0.065857,0.62143
-0.23735,0.78808,0.40229,-0.71492,-0.81502,0.14279,-0.31621,0.90192,0.40118,0.93711,-0.11834,-0.88123,-0.14911,-0.47809,-0.82656,0.86643,0.93213,0.32453,0.20844,0.98335,-0.49955,0.26494,0.61985,-0.73823,-0.65291,0.046909,-0.25897,-0.77145,0.022115,-0.91274
-0.71954,-0.13011,0.41335,0.74309,0.63422,0.85033,0.84773,-0.58221,-0.86767,0.6868,0.41809,-0.24459,0.11149,0.99221,0.098525,-0.48826,0.36888,-0.2373,0.035702,-0.80142,0.73808,0.90101,-0.11738,0.47382,0.68385,-0.047524,0.13374,0.50701,-0.61939,-0.55935
-0.17118,0.31897,0.39416,-0.48702,-0.89482,-0.98001,-0.20844,-0.94189,-0.11727,-0.60489,-0.36817,0.50324,-0.72579,0.079852,0.69532,-0.13381,-0.7781,-0.22532,-0.39212,0.16993,-0.37335,0.65063,-0.036782,0.90296,-0.10421,-0.56068,0.85202,-0.79833,0.55424,-0.55477
0.96504,0.58626,0.51026,0.11895,-0.49526,-0.079259,-0.42756,0.79782,0.53623,0.27836,-0.5885,0.46979,0.15626,-0.41036,-0.25089,-0.43684,-0.6144,0.38105,0.6521,-0.21455,-0.79363,-0.70322,0.90748,-0.035628,-0.61275,0.041767,-0.45993,-0.97622,0.53273,-0.63334
-0.25289,0.40394,-0.0060081,-0.41136,-0.69135,0.51537,0.3374,-0.38882,-0.2426,-0.1636,-0.82705,-0.50416,-0.43698,0.73807,0.22709,0.49151,0.84601,-0.59361,-0.60402,-0.9653,0.36093,0.93064,-0.72203,0.22241,-0.92307,-0.51533,0.48276,0.2445,0.82668,0.91136
0.53787,-0.68724,-0.73266,-0.91162,-0.11853,-0.79606,-0.83602,-0.83712,0.68658,0.68885,0.90417,-0.61583,-0.71397,0.49518,-0.98748,0.70764,0.93186,0.030815,0.8343,-0.10265,-0.87916,0.47071,0.72103,0.50119,0.7666,0.90242,-0.4537,0.93916,-0.44283,0.92667
0.37221,-0.81144,-0.25005,-0.8465,0.12698,-0.88303,0.71538,0.20871,0.26836,-0.31106,0.3055,-0.029759,-0.114,0.073382,-0.83691,0.65576,0.5746,0.083679,-0.96142,-0.36517,0.85261,-0.70807,-0.99721,0.53317,0.97343,-0.9322,-0.59833,-0.34701,-0.66882,-0.7706
-0.85433,0.41505,-0.24339,-0.24688,0.67424,0.94068,-0.056852,0.39203,-0.908,0.88418,-0.15114,0.74329,-0.17677,-0.058078,0.20152,-0.76947,0.53998,-0.074362,-0.687,0.36568,-0.80931,0.49097,0.64497,0.077685,0.89534,-0.43795,0.55722,0.010697,-0.17128,-0.20846
-0.4615,0.53047,-0.95186,0.47946,0.51571,-0.31725,0.71955,0.67773,-0.83234,0.62677,0.48557,0.07083,0.29949,-0.84046,0.03307,0.69098,0.9819,0.3964,0.26812,0.69736,-0.87769,0.14482,0.76815,0.89926,0.45017,-0.75119,-0.2544,-0.77853,-0.30981,-0.95438
-0.37005,0.14155,-0.7344,0.081216,0.84468,-0.20783,-0.6505,-0.82761,-0.4074,-0.88884,-0.14944,-0.59541,0.71075,0.8393,0.25467,0.27954,-0.22735,-0.97241,-0.13081,-0.065703,-0.71039,0.20877,-0.077704,-0.43371,-0.89987,-0.55508,-0.44663,0.91096,0.96782,0.80034
0.066114,0.5325,-0.056496,0.54347,0.69913,0.11629,-0.75509,0.41394,0.7981,-0.63672,-0.27072,-0.96809,-0.82157,-0.86113,0.097492,0.89395,0.97664,0.55133,-0.23871,-0.26272,0.26184,-0.69346,0.34997,0.84748,-0.046644,0.70371,0.98207,-0.27331,-0.09746,0.35472
-0.65916,0.042,-0.60248,-0.27406,0.7776,0.30308,0.73017,0.78708,0.6168,0.4626,0.20741,0.98794,0.55259,-0.80993,0.75538,-0.39463,-0.91161,-0.87875,0.78273,-0.7974,0.63191,-0.75151,-0.66102,-0.55506,-0.58217,-0.4073,0.44095,-0.47511,0.56853,0.041226
-0.50085,-0.46539,-0.52598,0.69401,-0.74088,-0.96706,0.13626,0.77733,-0.29275,-0.78202,0.30749,0.39471,0.70899,0.27808,0.70943,0.76586,-0.86027,0.24774,0.20337,0.54317,-0.51173,0.45031,0.72255,-0.71407,0.83744,0.7365,-0.1493,-0.98221,-0.69999,0.54266
0.60774,0.52579,0.59382,-0.13521,-0.10391,-0.19619,0.81716,0.59856,0.43711,-0.65177,0.034023,0.22836,0.87243,0.027059,-0.77245,-0.083487,0.30377,0.028669,-0.15265,-0.20222,-0.69388,0.062349,0.44088,-0.61944,-0.84676,0.69315,0.72254,-0.64831,0.68613,-0.6578
-0.76236,-0.93789,0.38971,0.13124,0.10595,0.2486,-0.20683,0.35728,0.57503,-0.17279,-0.54723,0.24329,0.94746,-0.15982,-0.80609,0.77388,-0.31074,0.61702,0.88958,0.15245,0.34663,-0.92087,-0.24491,-0.40027,0.8487,0.13794,0.21483,0.088103,-0.92251,-0.83968
0.88272,-0.073554,0.33227,0.48511,0.92191,0.7439,-0.1563,0.53632,-0.14519,0.87063,-0.0099648,-0.55543,-0.82477,0.60908,0.82871,-0.6154,0.68134,0.1684,-0.49327,-0.59674,0.80477,-0.21422,0.82761,0.25674,0.52444,0.93016,0.07202,-0.82009,0.010905,0.22284
0.018369,0.68903,-0.65399,0.86415,-0.1492,0.65885,-0.092766,0.29371,0.23598,-0.47034,-0.071811,-0.27174,0.74386,0.29432,-0.72023,0.91104,0.99114,0.34794,0.28622,-0.36869,-0.41319,0.72252,0.73061,0.1785,0.45862,-0.07437,0.14286,-0.5493,0.20761,-0.25692
-0.0037277,-0.42159,0.0429,0.86751,0.5923,-0.11748,0.29849,-0.31934,-0.3706,0.22742,0.24644,-0.50037,-0.62597,-0.69101,-0.22079,0.87392,-0.91186,-0.86941,-0.33827,-0.010765,-0.028232,0.76247,0.50234,-0.2718,-0.15877,-0.81863,0.42151,-0.45046,-0.55682,0.46531
-0.39386,0.30787,-0.13111,0.41758,0.88091,-0.84465,0.35379,-0.018434,-0.25398,0.81369,-0.15588,-0.26302,-0.11572,0.13638,0.063648,-0.71997,0.16688,-0.56181,-0.79731,-0.90786,-0.2682,-0.57141,-0.9019,-0.94233,0.30283,0.70217,0.48088,-0.083569,0.11475,-0.22479
-0.79583,-0.080439,0.52605,0.81611,0.01669,0.71413,-0.7653,-0.57164,-0.72681,-0.017665,-0.2535,-0.49235,0.53416,-0.20031,-0.95291,0.18117,-0.8823,-0.82993,-0.7703,0.18459,0.062984,0.16012,-0.64909,-0.68681,0.063001,-0.84702,0.72756,-0.75039,-0.52931,-0.62311
-0.092073,-0.93764,0.99078,-0.62896,-0.82585,-0.71945,0.64209,0.24795,0.55734,0.80356,0.38751,0.9988,0.83227,0.67309,0.38211,0.67271,0.00448,-0.90107,0.90457,0.44154,-0.59191,-0.58877,0.98858,-0.20886,-0.17793,0.82294,-0.77523,-0.59965,-0.19388,0.53243
0.40189,-0.41389,-0.032344,-0.55321,0.92695,0.38705,-0.54083,-0.88569,-0.67909,0.60353,-0.57895,-0.36226,-0.70333,0.41248,-0.95372,-0.38638,-0.25492,-0.010674,0.13832,0.41238,-0.61966,0.874,0.23225,-0.91898,0.30022,-0.62546,0.5816,-0.52015,0.40779,0.98973
-0.18148,0.26447,-0.27874,-0.72304,0.29428,-0.58462,-0.61289,0.12822,-0.22758,0.31967,0.62334,-0.11878,-0.009895,0.76318,-0.82133,0.84244,-0.87407,0.749,-0.71101,0.66672,0.12673,0.66842,-0.1569,0.67173,0.42161,0.084771,-0.6115,0.12817,0.47795,-0.54859
0.16681,0.66287,0.16233,-0.92098,-0.55334,-0.7706,0.5375,-0.53544,0.27484,-0.89658,0.80923,-0.93391,-0.96714,-0.54843,-0.21135,0.20884,0.99645,0.18478,-0.13822,0.97386,-0.11208,0.67257,0.53663,0.29747,0.76471,-0.019447,-0.29461,0.67474,-0.95586,-0.36915
0.4935,0.025465,0.11806,-0.37025,0.55723,-0.68997,0.6211,-0.19154,-0.46508,0.77638,0.18507,-0.040028,-0.811,-0.60989,0.55635,0.15358,-0.66769,0.90199,0.5638,0.83016,-0.15141,0.2279,0.94845,0.65772,0.2708,0.43366,0.67829,-0.44577,-0.0043272,-0.20846
0.11873,-0.59391,0.091526,-0.27755,-0.15034,0.69067,-0.27365,0.16424,0.035658,-0.27527,0.56463,-0.18709,0.44887,-0.46217,0.24634,0.37431,0.1565,-0.40719,-0.42666,0.17827,-0.48511,-0.53925,0.35528,-0.076235,-0.68639,-0.46087,-0.13712,0.62293,-0.36393,-0.056206
0.81437,-0.98826,0.9909,-0.12047,-0.5535,0.7064,-0.50655,0.1057,-0.24489,0.18551,-0.15705,0.99299,-0.76024,-0.4826,0.233,0.64268,-0.39394,-0.8372,0.40527,0.35063,0.38064,-0.96608,0.47265,0.12763,-0.71294,-0.74932,0.72732,0.55782,-0.59482,0.70682
-0.23567,-0.21268,0.79532,-0.078901,0.98419,-0.99757,-0.629,-0.8816,0.26912,-0.56238,0.46775,0.33696,-0.4063,-0.52962,-0.017598,-0.79868,-0.5446,0.67409,0.49036,0.18683,-0.49449,0.083227,-0.98005,0.46568,0.71982,-0.6004,-0.66335,0.040194,0.79238,-0.34486
0.65935,0.38844,-0.40352,-0.18499,0.34551,0.57446,-0.82739,0.74696,-0.11891,0.5456,-0.42915,-0.48104,-0.86976,-0.42228,-0.58046,-0.58705,-0.99014,-0.23728,0.21513,-0.5727,0.69523,-0.20897,0.26665,0.8822,-0.14704,-0.30071,-0.38121,-0.2038,-0.67468,-0.6132
0.85972,0.5242,-0.61711,0.35053,0.67562,-0.0031481,0.87629,-0.35801,-0.78439,-0.59837,-0.19234,-0.81454,-0.91598,0.084842,0.78906,0.031075,-0.6306,0.78074,0.5797,0.00046819,-0.56426,0.64928,-0.0041562,-0.1268,0.46383,0.52107,-0.60477,0.95244,-0.30211,0.016734
-0.36961,0.27172,-0.78551,0.096417,-0.52369,0.88321,0.9988,0.28133,0.41846,-0.74757,0.097442,-0.66678,0.4246,-0.12281,-0.15077,-0.33493,-0.35884,0.26987,0.25375,-0.83223,0.95504,0.56683,0.17328,-0.92934,-0.019407,0.29691,0.34797,-0.89074,-0.52103,-0.54652
0.55292,0.76619,-0.86162,0.71965,-0.68433,-0.49812,-0.089968,-0.82283,0.85004,0.89585,-0.022667,0.84048,0.91296,0.38757,0.699,-0.53493,-0.26146,0.00044031,0.11248,-0.63282,0.76738,0.74287,0.68805,-0.42255,0.012643,-0.6851,-0.70903,-0.47162,-0.29733,0.22819
0.59023,0.62798,-0.95546,0.9,0.27532,0.96285,-0.13924,-0.13847,0.053985,0.92396,0.5724,-0.41989,-0.88487,0.99505,-0.64273,-0.24123,-0.58636,0.84307,-0.17178,-0.55507,0.92355,-0.073064,-0.01721,0.54538,0.035994,-0.94603,-0.056346,0.71291,0.17401,-0.41768
0.74537,0.65701,-0.85281,-0.50059,0.15468,0.86223,-0.66987,-0.30608,-0.64292,0.34074,-0.71644,0.75382,-0.83542,0.98059,-0.7643,0.68435,0.29411,-0.44888,0.88881,-0.32213,-0.18531,0.12195,0.3089,0.72353,0.91125,0.70593,-0.78788,0.13132,-0.74954,-0.88501
-0.70006,0.021094,0.44559,0.68517,-0.98871,-0.66286,0.48071,-0.68842,-0.045576,0.70749,0.79085,0.38305,0.90296,-0.27004,0.17987,-0.31132,-0.24888,-0.83902,-0.34537,-0.48914,0.20933,0.55105,0.88699,0.010584,0.76448,0.71346,0.86512,0.54058,0.77138,-0.2464
-0.29486,0.12883,0.97142,0.42044,-0.29976,-0.3829,0.64785,-0.62254,0.18505,0.09695,0.67964,0.46821,0.84612,0.75021,0.16672,0.73631,0.34182,-0.77825,0.34297,-0.91196,0.82821,0.19179,-0.55283,0.85964,0.85958,-0.79463,0.3396,-0.94736,0.51145,0.21145
-0.12484,0.33781,-0.63531,-0.58255,-0.50236,0.78454,-0.98922,0.35071,-0.33436,0.39707,0.41504,0.71653,0.073096,-0.24765,-0.37784,0.2451,0.4608,0.77259,-0.69563,-0.082776,0.66833,-0.85245,-0.41432,0.95032,0.45131,0.51792,-0.53554,0.87842,-0.51122,-0.59083
0.27003,-0.78847,0.35373,0.36067,-0.73893,0.14251,0.42626,0.9642,-0.16316,-0.11431,-0.91405,-0.6826,-0.6412,0.74619,0.17573,0.0090024,-0.12996,0.90755,0.050109,-0.16305,-0.13063,0.093867,0.36039,-0.39286,0.3611,0.87458,0.86294,-0.31637,0.52867,-0.84667
0.013773,-0.12775,-0.33358,-0.10114,0.3735,-0.018372,0.066762,0.08047,0.60779,-0.83417,-0.15217,-0.18268,-0.10488,0.18036,0.22448,0.66223,-0.88942,-0.17164,-0.54144,-0.81691,-0.96391,0.34113,0.70482,-0.93025,0.76701,0.57777,0.9237,-0.38601,-0.96557,-0.62612
0.49715,-0.077347,-0.18682,0.54163,0.50479,-0.49181,-0.43804,-0.82989,0.67417,0.77286,-0.76538,0.2955,-0.094899,0.27607,-0.45593,0.86761,0.5107,0.37429,-0.29839,0.56549,-0.026028,0.50553,0.095957,-0.53383,0.82978,-0.68123,-0.68721,-0.38343,0.19722,-0.9184
0.66695,-0.45188,-0.47835,-0.37492,-0.88107,0.42242,-0.37881,0.86055,-0.65354,0.68671,0.32128,-0.50026,-0.20347,0.52357,-0.59264,0.53152,-0.84946,0.72097,0.81025,-0.78499,-0.33672,-0.62874,0.20698,-0.48722,-0.08626,-0.60099,-0.64002,0.60808,-0.8122,-0.76652
-0.64672,-0.022552,0.076253,0.30692,0.043247,-0.88397,-0.49356,-0.34506,0.6081,-0.48836,0.35925,0.94622,0.67887,0.12257,0.44653,0.039845,0.0549,-0.70824,-0.002427,0.0038612,-0.50019,-0.52578,-0.072164,0.59015,-0.19542,0.0085991,0.50975,-0.47765,-0.33605,-0.24863
0.85173,-0.92034,0.6963,-0.19911,-0.11859,-0.79706,0.92891,0.59623,0.44459,0.55213,-0.92378,-0.14489,0.15582,0.93611,-0.30258,-0.78824,-0.019765,0.0098818,-0.98012,-0.87334,0.054035,0.32705,-0.29926,-0.44884,-0.77398,0.24114,0.82374,-0.056775,-0.29003,-0.44287
-0.89096,-0.18263,-0.60408,0.89761,0.69995,0.89909,0.55952,-0.31284,0.010493,-0.15667,0.079947,0.27652,0.061743,-0.91242,-0.74644,-0.050064,0.43536,0.013577,0.18683,0.84589,-0.0025065,0.96446,-0.75577,-0.73659,-0.62744,0.44477,-0.0010377,0.54312,-0.82367,0.069238
-0.74551,0.54933,0.45376,0.23917,0.69227,0.079902,0.54731,-0.59832,-0.70264,-0.87241,0.82224,0.10345,0.11522,-0.38304,0.1158,0.92308,-0.21403,0.90247,-0.048061,0.62876,0.5687,-0.28211,0.29956,0.70798,0.45274,0.28328,-0.49484,0.88963,-0.29833,0.85236
0.96788,0.93176,0.40758,-0.64363,-0.42882,-0.30386,0.63788,-0.63032,-0.84881,-0.14176,0.91074,0.96879,-0.44817,-0.20558,-0.14223,-0.51801,0.013336,-0.7188,0.32477,0.25867,0.51057,0.1434,0.84516,-0.93703,-0.69559,-0.27698,-0.79705,-0.45684,0.59262,0.83067
-0.27682,-0.58459,-0.89648,0.68503,0.02628,0.27989,-0.02096,-0.054469,0.66235,0.81826,-0.57216,0.19202,-0.98308,-0.55494,-0.14668,-0.36363,-0.45519,-0.20045,0.31334,0.21619,0.29938,-0.1089,-0.88002,-0.27782,-0.91973,0.055051,0.74384,-0.54907,-0.19465,0.85833
0.28748,-0.93806,0.049555,0.36127,0.98292,-0.96213,-0.84435,-0.66143,0.60334,0.070606,0.25448,-0.21449,-0.022659,0.21354,0.56047,-0.43141,0.7073,0.03513,0.32295,0.10401,0.37544,-0.43525,-0.81627,0.99465,0.81667,0.99595,0.022743,0.38769,-0.30423,-0.037655
0.37518,-0.9678,0.53351,-0.9719,-0.99651,-0.58936,0.46115,0.90256,-0.28855,-0.054094,-0.61818,0.11263,0.29246,-0.57911,0.98252,-0.30449,-0.87386,0.86628,-0.70634,-0.27858,-0.17357,-0.72666,-0.67593,-0.87827,0.55378,0.43902,0.41159,0.24217,0.60349,-0.10562
0.26242,-0.5719,-0.38957,-0.87838,-0.19929,0.97654,-0.18568,0.77473,-0.30284,0.23337,-0.52143,-0.75961,0.60996,-0.13596,0.77007,0.97576,-0.76535,0.47275,-0.2623,-0.027965,-0.27551,0.96498,-0.89322,-0.82173,0.080662,0.50587,-0.45776,-0.56621,-0.65077,0.78695
-0.62673,0.85711,0.15396,-0.18312,-0.36709,0.93043,0.90986,0.42992,-0.72222,0.93118,0.93821,-0.55369,-0.3451,-0.079632,-0.64265,0.93724,-0.0081254,-0.67016,-0.69428,-0.53737,-0.48036,-0.10757,0.9218,-0.36838,-0.28938,0.73804,-0.73502,0.30483,0.82501,0.10471
0.19599,0.35328,0.06619,0.37011,-0.81134,-0.5939,0.30808,0.6985,-0.3881,0.060756,0.67788,0.80792,-0.53534,0.53882,0.061755,0.92056,0.59197,0.70964,-0.86663,0.26287,-0.83178,0.94219,-0.013969,0.5807,0.34051,-0.50766,-0.97262,0.30077,0.32057,0.30476
-0.74678,0.3734,-0.17394,0.58487,-0.68037,-0.38159,-0.9728,-0.34884,0.18325,-0.084938,0.13413,0.041331,-0.30089,0.35889,-0.46918,0.6269,0.22265,0.073498,0.68489,-0.92485,0.36449,-0.62471,-0.79911,-0.044928,-0.28275,0.63555,0.74874,-0.51495,0.56084,-0.56374
0.97977,0.56534,0.77923,-0.13346,-0.81047,0.45025,-0.52999,0.45577,-0.046738,-0.16271,0.56534,-0.06126,-0.22431,0.62496,0.96405,0.12077,-0.84616,0.86725,-0.34912,0.99917,-0.23935,0.58352,-0.052132,-0.69757,-0.67638,0.010948,-0.42499,0.1436,0.97511,-0.0082146
-0.41191,-0.057935,0.81631,0.99173,0.99694,-0.43028,-0.40176,0.61559,0.031027,0.87864,0.19245,-0.9583,0.28109,0.61048,-0.72929,0.14666,0.048212,-0.41458,0.61417,-0.47218,0.55977,0.86042,0.97679,-0.93215,-0.93804,0.2457,0.74101,-0.14203,-0.57495,-0.048193
0.82509,0.75552,0.27415,-0.068192,-0.1229,-0.65129,-0.046761,0.65118,0.07722,0.95151,-0.18527,-0.75816,0.65189,-0.4329,0.081582,-0.49959,0.16136,-0.84403,-0.21874,-0.68344,0.56884,-0.86264,-0.43624,-0.56688,0.80773,-0.042635,-0.28505,-0.43682,-0.086479,0.84597
0.074998,0.20911,-0.44237,0.090208,-0.95988,0.57036,-0.90829,0.48075,-0.61342,-0.056482,-0.26042,0.34305,0.65068,0.63103,-0.061641,0.80695,0.32022,0.32368,-0.84099,0.9846,-0.20393,0.86156,0.9195,-0.76881,0.3244,-0.074874,0.55396,-0.63707,0.67219,0.20949
0.95025,-0.49276,0.56071,0.38886,0.065342,0.99681,0.87307,0.96431,0.30926,0.2591,-0.80718,0.63629,-0.57741,-0.46546,0.60953,-0.64701,0.30842,-0.66559,0.092819,0.001696,-0.78582,-0.0054973,0.007252,0.19428,-0.52957,-0.40966,0.59108,0.073401,-0.92501,-0.23366
-0.18026,0.56333,-0.46957,-0.51364,-0.71458,0.075289,0.70027,-0.53784,0.59834,0.068467,-0.72114,-0.10484,0.57,0.14607,0.75473,-0.27967,-0.39817,0.058552,0.86513,0.79189,-0.99479,0.93901,0.85586,-0.32955,-0.97639,-0.24855,0.39146,0.94283,-0.87772,-0.88615
-0.15427,-0.69782,-0.53982,-0.57211,-0.80289,0.40708,0.69184,0.64574,0.32955,0.086723,-0.0056166,-0.84466,-0.44502,-0.18019,0.43185,0.46992,0.42393,0.43908,-0.59908,0.11798,0.40686,0.64357,-0.18517,-0.30846,0.1321,-0.33503,0.27823,0.97672,0.80158,0.1729
0.70158,-0.0014652,-0.39863,-0.2135,0.35071,0.9816,-0.49262,-0.28447,-0.99767,-0.19748,0.45649,-0.69242,0.83709,0.08144,-0.75843,-0.47434,-0.00040641,0.60988,0.4494,0.10188,0.9932,-0.88835,0.34199,-0.68509,-0.87297,-0.83292,0.57288,-0.40952,0.76496,0.13832
0.39328,-0.11784,0.76327,-0.47208,-0.50011,-0.59828,-0.83452,-0.62283,0.44629,-0.66955,-0.82256,0.57653,-0.37682,0.48738,0.85401,0.25147,-0.51218,-0.45394,0.68008,-0.060305,0.84872,0.8286,-0.14821,0.71015,0.53106,-0.067269,-0.80551,0.32113,-0.51033,0.52316
-0.17329,0.69676,-0.96124,0.94158,-0.63128,0.82454,-0.9882,0.73221,-0.51204,-0.68963,-0.041433,0.58453,0.43959,0.016247,0.62698,0.034578,0.86642,-0.60053,-0.8034,-0.98375,-0.045397,-0.51238,0.45234,-0.54317,0.17107,0.73374,-0.37144,0.15133,0.86623,-0.29575
0.96134,-0.15124,-0.36287,-0.47044,0.41033,0.77776,0.86912,0.84723,-0.48833,0.064851,-0.17789,0.012197,-0.64002,-0.29403,0.96433,-0.036616,-0.8137,-0.052123,-0.098304,0.7593,0.87094,0.66929,-0.69363,-0.08269,0.95424,-0.03876,0.247,0.45376,-0.56946,0.23916
-0.070285,-0.2602,-0.82938,-0.1924,-0.25015,-0.2636,-0.12729,0.76617,0.129,0.14736,0.45876,0.34232,-0.79632,-0.55912,0.52874,-0.53972,-0.3981,0.73006,0.61225,0.66136,0.72491,-0.77205,0.82178,0.17357,0.61816,0.080784,-0.79857,-0.2114,0.32977,0.2431
0.65377,-0.7644,0.0037741,0.065826,0.094492,0.049402,-0.12663,-0.096231,-0.82512,-0.21149,0.11196,-0.89494,0.58893,-0.97516,-0.037593,0.25055,-0.15619,-0.87839,-0.87307,-0.59614,-0.42071,0.31545,-0.89538,0.25974,-0.065022,0.79725,0.076856,0.16082,0.8023,-0.29536
-0.005515,-0.48178,-0.48992,0.29974,-0.53558,-0.59578,-0.22498,-0.063378,0.77346,0.62766,0.75146,0.16135,-0.91158,-0.11814,-0.73366,-0.74597,-0.32417,0.079697,-0.10493,-0.41531,-0.94671,0.74702,0.26533,0.33956,0.21498,0.70741,-0.82386,-0.045002,-0.024029,-0.24392
0.50087,0.63205,0.75441,-0.31458,-0.58127,0.79583,-0.68498,-0.74562,-0.91268,0.99565,-0.7642,0.60615,-0.39502,0.64555,-0.15838,-0.86257,0.57172,-0.38363,-0.3227,0.61089,-0.13455,-0.53217,-0.56171,0.12207,-0.16682,0.14627,0.74151,0.25339,0.79246,0.49373
0.1333,-0.30938,-0.5704,-0.77964,-0.73182,-0.27557,0.94984,-0.7059,-0.13891,-0.47981,0.51963,-0.12534,0.12509,0.54064,-0.87521,-0.69204,-0.64766,0.46139,-0.48441,0.29401,-0.10204,0.0031177,0.81224,0.22018,0.090774,0.16802,0.15143,-0.95672,-0.16564,-0.6755
0.67142,-0.69298,-0.29074,-0.25964,-0.17066,-0.96097,0.51358,-0.87361,0.68251,-0.16515,0.66833,-0.45671,0.66984,0.21733,-0.45282,0.52853,0.44295,-0.53021,0.9497,-0.14096,-0.33137,-0.42352,-0.96374,-0.2321,0.19603,0.45606,0.49548,-0.54931,-0.29239,-0.13387
-0.59917,0.78398,-0.70801,-0.10847,0.16544,-0.27238,0.89087,0.078444,0.20127,0.19145,-0.0046474,-0.49935,-0.048013,-0.7137,-0.3959,0.14764,-0.28618,-0.097799,-0.76597,-0.80393,-0.38493,-0.94668,0.86291,-0.16849,0.13861,0.35878,-0.30626,0.21147,0.72917,0.25112
-0.86097,0.25869,-0.52814,-0.68905,0.022266,-0.21275,-0.4816,0.88093,0.077127,0.049341,0.32976,0.80044,0.82533,0.22163,-0.85909,-0.9568,-0.62184,0.11248,0.38738,-0.96548,0.95456,0.80789,-0.91025,0.40251,0.4668,-0.50093,0.39085,0.33227,-0.18462,0.93689
-0.80648,0.65382,-0.104,-0.78528,0.71576,0.3275,-0.82597,0.44979,-0.38119,0.064557,-0.32242,0.40889,0.6741,0.75922,0.38581,-0.48396,-0.1952,-0.036084,0.64957,0.13518,-0.25196,-0.84338,-0.88145,0.036137,0.17928,0.26427,-0.8579,-0.46859,0.30538,0.59689
0.59528,-0.83171,-0.99768,-0.40765,0.93422,0.12625,0.79257,-0.56252,-0.44597,-0.52207,0.42913,-0.57967,0.83398,-0.57991,-0.78848,-0.56874,-0.28565,-0.57585,-0.83955,0.33121,0.20655,0.63989,0.38261,-0.5557,0.98101,-0.17304,0.55678,0.53049,0.69618,0.48891
-0.94742,0.8314,-0.13797,0.57188,-0.78265,-0.14159,0.84895,0.44874,-0.75923,0.52551,0.97533,-0.24773,-0.33513,0.44959,-0.83334,0.11138,0.33654,-0.49272,0.040656,-0.50813,0.46679,-0.062661,-0.35081,-0.2769,-0.52267,0.68491,-0.84016,-0.82621,-0.83608,0.7223
0.47296,0.11387,-0.32093,-0.72163,0.29802,0.10699,0.33465,-0.76538,-0.84961,-0.037366,0.48693,-0.79851,0.30861,-0.54242,-0.42212,0.61906,-0.18113,-0.86825,-0.99388,-0.58783,0.33046,-0.20978,0.46086,-0.73089,0.47263,-0.04704,0.96468,0.42642,0.44686,0.35784
-0.70522,-0.17186,0.92483,-0.92578,0.34465,-0.64435,-0.48445,-0.90995,0.95267,0.3564,0.20395,0.17675,-0.54401,-0.51279,0.68664,0.34188,-0.98149,-0.80365,-0.028907,-0.36317,0.475,-0.97503,-0.1977,0.77394,0.61698,-0.03888,-0.66351,-0.68868,-0.24074,-0.89353
0.3685,-0.93477,0.86926,-0.077152,0.0098818,0.0096982,-0.67238,-0.32536,0.79939,0.58989,0.69895,-0.17528,-0.39318,-0.20376,-0.2347,0.095467,-0.58824,0.8217,0.30925,-0.22469,-0.71607,0.20135,-0.075223,0.055706,0.78738,-0.95213,0.50218,0.51665,-0.55743,0.35165
-0.042555,-0.89344,0.19703,0.93058,0.36177,-0.005258,-0.80788,-0.72128,0.1376,0.35575,0.7131,0.81318,0.2045,0.32346,-0.083178,-0.69567,0.19598,-0.63866,0.71603,-0.15989,-0.69917,0.11505,-0.29295,0.9151,0.018133,-0.63416,0.78888,0.4163,-0.85282,0.57591
-0.62342,0.25763,0.59011,-0.86675,-0.67568,0.94761,-0.28597,0.33115,0.72432,0.087703,0.065306,0.26924,0.87419,-0.039177,0.44799,0.48695,-0.27943,-0.37048,0.19006,0.82548,-0.10292,-0.19968,0.82416,0.19682,-0.53903,-0.97549,0.33413,-0.7496,-0.42862,-0.17367
-0.992,0.81704,0.8964,-0.23289,0.35855,-0.73383,0.97484,-0.3872,-0.2658,0.41798,-0.87617,0.25807,0.56517,-0.67219,-0.72224,0.098283,-0.030388,0.71868,0.80791,-0.28952,0.45613,0.56088,-0.034998,-0.7582,0.71584,-0.3357,-0.1033,0.76538,0.73524,0.77741
-0.66744,-0.1136,-0.036954,-0.32142,0.92171,-0.88615,0.027797,0.80162,-0.069339,0.16569,0.044419,-0.32186,-0.85672,-0.74534,0.54777,-0.58042,-0.35187,-0.2825,-0.78259,0.91995,-0.50528,0.82038,-0.62966,-0.10374,-0.76388,-0.63478,0.68514,-0.64399,0.61321,0.21199
-0.44586,0.20194,0.6099,0.54457,0.45472,0.82612,0.8404,-0.22958,-0.75213,-0.85987,0.32225,-0.085056,-0.50369,-0.62308,-0.054609,0.35009,0.96177,0.85618,-0.54426,-0.30978,0.020691,-0.72849,-0.041117,-0.11276,-0.11993,0.58234,0.66117,0.64395,-0.35834,-0.60894
-0.96152,0.16027,0.64431,-0.78725,0.49054,-0.087334,-0.0020462,0.87857,-0.34297,-0.66154,-0.56934,0.95012,0.10774,0.2172,0.94912,-0.84426,-0.13992,-0.68531,-0.95078,-0.7291,-0.59001,-0.46002,-0.86622,-0.45242,-0.84275,0.69872,-0.17772,0.48549,-0.32365,-0.36634
-0.27213,0.27943,-0.81829,0.83333,0.62456,0.60821,0.45227,-0.98478,0.15188,0.19961,0.00020732,-0.40518,-0.18405,0.16402,0.8025,0.24412,-0.113,-0.81704,0.62697,-0.48744,0.0091881,0.23006,0.5521,-0.71525,0.47002,-0.63866,0.58784,-0.33856,0.69683,-0.92655
-0.28527,-0.31353,-0.63863,0.16036,-0.94169,0.34212,-0.37856,0.91564,0.011035,-0.55376,0.20217,-0.072571,-0.4321,0.54869,0.36319,0.80113,0.81434,-0.8111,0.32493,-0.11732,-0.80431,-0.58979,-0.49284,-0.59481,0.96868,0.29171,0.97927,0.19694,0.60637,0.89618
-0.41085,0.1203,-0.44265,0.54131,0.65494,-0.37553,-0.4605,-0.2899,0.60978,0.086723,-0.48466,0.81128,-0.58434,0.5972,-0.77166,0.57722,0.24729,-0.60821,0.99595,0.037981,0.16626,0.40678,-0.55487,0.84152,-0.36949,-0.77923,-0.52865,0.2215,0.20894,0.068187
-0.093459,-0.4201,-0.024684,0.49899,0.52052,0.41251,-0.41978,0.81842,-0.757,0.88603,-0.53449,-0.3866,-0.423,-0.47295,0.64113,0.65656,0.29812,0.0084666,-0.44028,-0.84024,0.85347,0.19601,0.67071,-0.88282,0.20834,0.16407,0.047414,0.6438,0.46454,0.012556
-0.89011,0.99093,-0.5022,-0.57432,0.24464,0.10338,0.14324,-0.21605,0.65043,-0.76622,-0.61851,0.59354,0.038098,-0.58675,-0.097649,0.65269,0.51483,0.55185,0.76215,-0.80063,-0.09566,0.32888,0.028655,-0.4388,-0.28214,-0.99048,0.50642,-0.7214,0.5132,-0.22679
-0.050655,-0.1173,0.67364,0.4296,0.64735,0.32145,0.44136,-0.73208,-0.50583,0.21008,0.066037,-0.98883,0.94377,-0.33226,-0.19819,-0.33528,-0.85387,0.61087,-0.24487,-0.33938,-0.12287,-0.6667,0.11345,-0.3658,0.0972,0.47071,-0.43072,0.37704,0.82385,-0.73254
0.94053,0.59861,0.88531,0.0024226,0.93842,0.7016,0.7138,0.47678,-0.35264,0.22324,0.8408,0.28528,0.59195,0.61273,0.5911,-0.97437,0.73624,0.66685,-0.058498,0.94166,-0.11138,0.012278,0.043059,-0.46343,0.34331,-0.31149,0.10468,-0.357,0.75216,0.73112
0.46364,0.14931,-0.36827,0.61309,-0.10098,-0.32774,-0.76666,0.92501,-0.42245,0.12036,0.56094,-0.4936,0.83888,-0.7684,0.26739,-0.43896,-0.77911,-0.16898,0.006422,-0.054903,-0.59196,0.95961,-0.085313,0.22645,0.14525,0.21578,-0.96554,-0.95952,-0.81175,0.95131
0.68388,-0.78941,-0.36978,0.38245,-0.83386,0.35571,0.69671,0.26082,0.54256,-0.59458,0.095715,0.84923,0.16279,0.38453,0.32728,-0.89515,-0.39778,-0.89938,-0.72322,-0.85491,-0.62399,-0.73614,-0.37347,-0.75433,-0.07617,-0.85141,0.90312,0.39036,-0.015198,-0.64196
0.52696,-0.88119,-0.073307,0.1902,0.41048,-0.88889,-0.25793,-0.88223,0.93848,0.88409,0.72682,-0.96144,0.79245,0.28038,0.18833,0.28273,0.35332,0.14138,-0.25633,-0.20422,-0.7916,0.0028009,0.40414,-0.028424,0.57381,0.34289,-0.26414,-0.11096,0.85477,0.58516
0.92829,0.29446,-0.70871,-0.41098,-0.69567,0.7062,0.67211,-0.18214,0.94274,-0.66323,0.92692,0.39819,0.37392,-0.31014,0.51992,0.33403,-0.45059,-0.057868,0.023715,0.27134,0.64209,0.94467,0.22082,-0.4437,0.47492,-0.54562,0.1302,0.59316,-0.76399,0.21568
-0.47224,0.47292,0.15073,0.33216,0.33265,0.69836,0.86599,-0.79676,0.58409,-0.97873,0.46138,0.54098,-0.052351,-0.64016,0.15828,0.73132,0.75076,-0.52637,0.47051,-0.42676,-0.71079,-0.89525,-0.41231,-0.49375,-0.85707,0.2746,0.99015,0.91788,-0.89348,0.97192
-0.74148,-0.37303,0.37724,0.56397,0.046598,0.19987,0.69504,-0.57518,-0.29932,0.080157,0.86092,-0.5425,-0.50498,-0.78759,0.68236,0.32635,-0.23308,-0.1151,-0.058872,-0.2311,0.96662,-0.41642,0.53067,-0.64535,-0.53163,0.027244,0.28285,-0.25356,0.7448,0.99482
-0.47764,-0.32295,-0.50478,-0.74021,0.72814,-0.15942,-0.25952,-0.15886,0.70269,0.67424,0.76384,-0.46897,0.65991,-0.63569,-0.76817,0.65811,-0.75134,-0.24932,0.35445,0.12675,0.68839,-0.069115,0.52571,-0.99299,0.35211,0.19575,0.35798,-0.39426,0.41957,0.54314
0.1048,0.62322,0.9489,-0.5504,0.15487,-0.37566,0.92738,-0.23055,0.9995,0.27506,0.28566,0.64013,0.71332,0.049748,0.99675,0.01547,-0.81683,-0.05303,-0.69748,-0.58048,-0.75233,0.47596,-0.41755,-0.2335,-0.96121,0.84817,0.69627,-0.78661,-0.71207,0.64033
0.4735,-0.75251,-0.18316,-0.88492,0.57755,0.85136,-0.10924,0.75127,0.096204,0.89619,0.83201,0.57489,0.68891,0.099921,0.55635,0.79074,-0.343,0.57688,-0.9346,-0.48347,0.27072,-0.19603,0.90799,-0.64464,0.31702,-0.029972,0.9507,0.27573,0.14785,-0.98057
0.15826,0.49584,0.82589,0.23191,-0.21224,-0.18998,0.85495,-0.40465,-0.5506,-0.66143,-0.28646,0.23669,-0.11461,0.1604,-0.34362,-0.017235,-0.98828,-0.75133,0.80881,0.81962,0.25612,0.22563,0.65075,-0.79461,-0.33988,-0.93238,0.085575,0.80786,-0.53849,0.99232
-0.78404,-0.35164,-0.17768,0.65429,-0.81796,0.56636,0.32375,0.21465,-0.52413,0.065566,0.39342,-0.34484,0.14734,0.3328,-0.97492,-0.5717,0.9766,-0.81664,-0.27762,0.51719,0.64756,-0.52086,-0.16395,0.043234,0.94088,-0.8318,-0.088549,-0.45502,-0.33061,0.81625
0.30171,-0.65279,0.45756,0.61233,0.702,0.34884,-0.58058,-0.18613,0.078688,0.50221,0.12379,-0.73658,0.58019,-0.55795,0.25756,-0.69261,-0.64557,-0.24963,0.87493,-0.73979,0.47798,-0.90954,-0.6303,-0.42534,0.41897,0.21701,-0.61447,0.51198,0.070527,-0.44115
-0.47663,0.50699,0.27148,0.0078942,-0.17234,-0.50461,-0.027329,-0.66788,0.088345,-0.16499,-0.23125,-0.2622,-0.60938,0.40735,0.76335,0.080316,0.76208,0.34417,-0.9165,-0.79994,0.74127,-0.17047,-0.17351,-0.87287,0.54868,0.13059,0.35091,-0.40729,0.86742,0.90955
-0.74568,-0.34112,-0.39209,-0.48439,0.30808,0.76465,0.31959,0.075421,-0.47551,-0.80193,-0.21706,0.14079,0.36941,0.00671,0.13716,0.26825,-0.4603,-0.75993,-0.018191,0.048875,0.43327,0.33659,0.46482,-0.39497,0.10398,-0.67106,-0.45154,-0.1065,-0.78841,0.20094
-0.36211,0.29004,-0.38283,0.10294,-0.15025,0.38048,-0.90185,0.16554,-0.9936,0.22651,-0.54533,0.096736,0.24424,-0.2288,-0.80436,-0.55042,0.6631,0.42955,0.1989,0.91791,0.058972,-0.59305,0.70098,0.71321,0.45122,0.61086,0.10073,0.46555,0.15516,0.16977
0.69895,-0.5407,0.82777,0.56803,-0.6577,0.77384,0.60148,0.32107,-0.753,-0.40181,-0.82381,-0.17915,-0.32194,0.94231,0.99729,-0.95329,0.87181,-0.39797,0.19318,-0.72121,-0.84518,-0.68855,-0.22753,-0.40749,0.24818,0.57353,-0.79847,-0.23901,0.53796,0.53693
-0.49649,0.34999,-0.060628,0.14502,-0.87915,0.16505,-0.76808,0.44586,-0.19116,-0.072845,-0.76711,0.85723,0.59843,-0.87739,0.51457,0.31205,-0.032499,0.35096,-0.87716,0.7573,0.61828,0.39021,0.045477,-0.70565,-0.29544,0.33223,0.67964,-0.0079298,0.56212,0.1348
-0.71411,0.26778,0.7705,0.19408,-0.44404,0.72222,0.76898,0.83,-0.94095,-0.13773,0.50091,-0.89756,-0.48513,0.87425,-0.19054,0.46043,-0.27864,0.49805,-0.12693,-0.96095,0.78417,0.42044,0.53724,0.16108,0.9119,0.29644,0.44448,0.23804,-0.24459,0.22872
0.08818,-0.76311,0.6465,-0.73631,0.28016,-0.56135,-0.65676,0.0092737,-0.76687,-0.33338,-0.33288,0.56678,-0.66477,0.56976,0.73297,-0.28057,0.96464,0.23242,0.05963,-0.037569,0.30452,-0.99027,-0.015923,0.12268,0.95389,0.31654,-0.95988,0.83277,0.29854,0.062373
0.99553,-0.8311,0.69997,0.266,-0.59284,-0.65308,0.23233,0.091108,0.6803,-0.94129,0.19635,-0.80903,-0.77131,0.79028,-0.21237,-0.85275,-0.41964,0.83355,-0.57492,0.69308,0.54904,0.95575,-0.91243,-0.48133,-0.45233,0.8552,-0.84795,-0.88388,0.34373,0.094606
0.95906,-0.6085,0.422,0.32603,0.63909,0.88925,-0.93439,-0.66938,0.24647,0.36224,-0.48467,-0.87501,0.99439,-0.8842,0.18427,0.39383,0.81053,0.80179,0.84297,0.85911,-0.61327,-0.99026,-0.15493,0.50581,-0.9982,0.7807,-0.12583,-0.00098658,-0.54232,-0.25673
0.37309,-0.12047,0.95238,-0.54729,0.23612,0.89082,0.95981,0.056048,0.66863,-0.96225,-0.99444,-0.77648,0.82565,-0.33982,0.88393,-0.10038,0.87343,-0.72266,0.76228,-0.066034,0.54533,0.13203,-0.014352,-0.22016,-0.49078,0.97198,0.48385,0.19398,-0.025494,-0.18326
0.52818,0.020141,0.39983,-0.71457,0.10032,-0.89455,-0.37037,0.23327,-0.56655,0.41967,-0.92165,-0.60467,0.17807,0.10292,0.71921,-0.59225,0.39936,-0.93824,-0.86627,0.73936,-0.63032,0.33494,0.034819,-0.32286,0.21004,-0.59332,0.40462,0.63473,0.72741,0.70062
-0.25539,-0.51367,-0.46212,-0.63582,-0.062767,-0.90812,-0.5216,-0.085349,0.81282,-0.34071,0.2846,-0.54961,0.052601,-0.26177,0.75751,0.98638,0.57334,0.69051,0.92904,0.67594,-0.021697,0.79491,0.59911,-0.12702,0.61121,0.20769,-0.52417,0.9715,0.2986,-0.94931
0.78347,0.35615,0.62264,0.49937,0.2707,0.35623,0.48078,0.95001,0.77659,0.63438,0.32583,-0.81236,0.91291,0.67824,0.51951,-0.16243,-0.058299,0.78122,-0.1886,-0.067965,0.61174,0.83865,0.78951,0.38313,0.34061,0.42216,0.030637,-0.10218,0.35536,-0.27577
-0.42647,-0.90039,0.71306,0.09828,-0.2219,-0.49353,-0.82319,-0.84575,0.4422,-0.37087,0.97053,0.70452,0.41382,0.55705,0.20646,-0.94052,0.61887,-0.22377,0.10925,-0.62875,-0.87577,0.83301,-0.82719,-0.61743,0.58262,0.041871,0.50844,0.54295,-0.15791,0.99167
-0.65338,0.57673,0.11951,0.63105,-0.95823,-0.8354,0.12329,-0.76249,0.67907,0.67358,0.52682,0.40846,0.43619,0.84531,0.65764,-0.77758,0.944,0.68768,-0.27753,-0.61987,0.70248,-0.59095,-0.10968,-0.2188,-0.9147,-0.18889,-0.87967,0.91244,0.59437,-0.52413
0.69193,0.98816,-0.46906,0.66677,-0.93834,0.12349,-0.15239,0.29006,0.71615,0.93748,-0.22138,-0.952,0.20369,0.82274,-0.38201,0.28387,-0.1724,-0.10456,-0.32157,0.35749,0.56577,-0.11758,0.30018,0.40404,-0.90435,0.33679,-0.9401,0.67231,0.61642,-0.80377
-0.37316,-0.56257,-0.8165,0.50441,-0.89468,0.48857,-0.8949,-0.26108,0.87819,-0.60833,0.6935,0.18072,0.40688,0.69739,-0.72599,-0.76154,0.4608,0.24161,-0.11176,-0.49248,0.51235,0.37189,0.80305,-0.72302,-0.88893,-0.8102,0.79094,-0.21057,-0.1622,-0.27488
-0.60643,0.19634,0.56907,-0.064883,-0.56196,-0.43811,-0.048926,-0.49045,-0.73015,0.36266,0.75169,0.77389,0.74707,-0.22907,-0.19071,0.77248,0.94801,0.69929,-0.084051,0.34816,-0.82538,-0.88308,-0.8483,-0.16835,0.82042,0.26845,0.6346,-0.58656,-0.74861,-0.66683
-0.59352,-0.60687,-0.39219,0.49863,-0.61483,0.611,0.13564,0.29332,0.54993,-0.81695,-0.24197,0.16864,0.96443,-0.75919,0.16028,-0.96958,0.19207,-0.92278,0.56168,-0.043313,0.090738,0.86343,0.55259,-0.86206,-0.50775,0.43131,-0.67421,-0.58428,-0.73659,0.7484
0.74613,0.37609,0.36396,-0.59437,0.80573,0.18742,-0.37979,-0.41313,0.52866,-0.83077,0.94741,-0.34058,0.72705,0.70172,-0.47255,-0.098635,-0.14679,-0.52864,-0.41729,0.37601,-0.45373,-0.40848,-0.90183,-0.48024,0.091119,0.62443,0.53283,-0.54661,0.76386,0.13586
0.1254,-0.5961,0.23829,0.57186,-0.29756,0.52912,-0.5658,-0.84912,-0.95255,-0.18703,-0.14703,-0.43893,-0.028396,-0.87539,-0.2997,-0.99131,-0.46191,-0.6579,0.54872,0.65583,0.16995,-0.85914,0.0048421,0.74017,-0.2346,-0.039378,-0.10705,-0.28429,-0.51889,0.70281
-0.0034195,0.6392,0.3547,-0.47652,0.19782,0.41318,-0.92639,-0.49661,-0.11027,0.94778,0.77148,-0.62401,-0.2288,-0.59554,0.98099,-0.69191,0.68887,-0.22092,-0.69794,0.83314,0.44717,-0.95794,0.99439,0.012671,0.56843,-0.42746,0.89697,-0.53867,-0.012217,0.19713
0.53879,0.60642,0.24775,-0.071799,0.78734,-0.026073,-0.39171,-0.81875,-0.062855,0.44586,0.92656,-0.71174,-0.21322,-0.89221,-0.23942,-0.97061,0.72544,-0.95302,0.37711,-0.27339,-0.17699,-0.21285,-0.3643,-0.53792,-0.35882,0.43593,-0.025747,0.93786,0.31921,-0.8243
0.89718,0.086337,-0.061324,-0.052612,-0.35211,0.33393,0.27116,-0.041488,-0.94495,-0.88125,-0.11674,0.46529,0.22791,0.97104,0.21192,0.0027355,-0.68335,-0.69704,0.54227,-0.82616,-0.64803,-0.98883,0.79877,-0.77385,-0.12019,0.57068,0.37709,0.63364,-0.77964,0.24887
0.81944,0.46402,0.68422,0.15759,-0.57315,-0.93485,-0.74384,-0.29982,0.82597,-0.40325,0.28344,-0.15871,0.61491,0.38369,-0.74281,0.93577,0.82778,0.94555,-0.86202,-0.33624,0.31285,-0.82971,0.33347,0.96088,-0.3919,0.25226,-0.23084,-0.53793,0.53239,-0.57111
0.13636,0.86031,-0.86586,0.46232,-0.29136,-0.55082,0.38938,-0.16888,-0.025916,-0.23941,-0.98673,0.59847,0.31888,0.43088,0.75923,-0.90617,-0.083294,-0.38563,0.56798,0.87071,-0.6628,-0.90215,0.89917,0.66755,0.44223,0.097622,-0.23059,0.79945,0.44638,0.77075
0.92609,-0.24491,0.19694,0.74936,-0.16358,-0.57605,0.90629,-0.38249,0.077192,0.72924,-0.57468,0.41324,-0.61211,-0.5489,0.24504,0.10982,0.50591,0.79012,-0.32545,0.049475,0.02182,0.19101,-0.3353,0.90867,0.080567,-0.31104,0.70908,0.7233,-0.34215,0.74878
0.4238,-0.33084,0.88946,0.95419,0.69674,0.0093667,-0.23871,-0.40364,0.3858,0.19029,-0.15347,0.90573,0.6802,0.20672,0.27792,-0.75377,0.30619,0.27772,-0.69047,-0.23462,-0.12294,0.71889,0.2072,-0.10234,0.061089,0.27495,-0.42848,-0.16442,-0.11139,0.44716
-0.47735,0.27333,0.57548,0.92896,0.014846,-0.34554,0.14835,-0.69204,0.079171,-0.18658,0.67143,-0.22559,-0.851,-0.64788,0.16584,0.038858,-0.12069,-0.30428,0.12933,0.16496,-0.6001,0.51484,0.70736,0.70927,-0.91275,-0.53774,-0.67165,0.70826,0.69406,0.85158
0.64625,-0.8789,0.97176,-0.012548,0.10302,0.85867,0.79737,0.58377,0.9505,0.52785,0.99121,0.76613,0.50414,-0.56279,-0.54954,0.57287,-0.59104,0.47592,0.57357,-0.76491,-0.27537,-0.19594,0.1024,-0.3551,-0.12809,0.36198,0.21215,-0.60359,-0.33365,0.22454
-0.12619,-0.92956,-0.47332,-0.90028,-0.65403,-0.64647,0.98768,0.52628,0.13792,-0.46411,-0.7882,0.93568,0.90797,-0.7534,-0.88592,-0.35544,0.822,-0.70845,-0.98976,0.57406,0.9224,-0.22167,-0.76051,0.77119,-0.78653,-0.2071,0.33101,0.81519,-0.3076,0.40124
-0.3287,-0.15518,0.72851,0.28748,0.8357,0.46467,0.021067,-0.76474,-0.67475,0.5014,-0.34857,-0.23646,-0.84538,-0.40582,0.60039,0.51904,-0.039148,0.2902,0.83876,0.76243,-0.76294,-0.7761,0.92609,-0.037195,-0.57216,-0.34519,-0.68395,-0.23824,-0.24877,0.82084
0.17463,-0.013404,-0.74769,-0.87008,-0.28369,0.73172,0.37846,-0.4642,0.043383,-0.27778,-0.3772,0.24546,0.30579,0.073183,0.4114,0.023936,-0.75437,0.48483,0.97442,-0.046998,0.84849,-0.78457,0.95939,-0.85079,-0.5868,0.011774,-0.79003,0.45053,-0.4122,-0.72347
-0.25638,-0.87413,0.055866,-0.6145,-0.052174,-0.31476,0.56578,0.10407,-0.37589,-0.14858,0.77855,0.80709,-0.028796,-0.2309,-0.28782,-0.68642,0.1093,-0.92681,0.57879,-0.35257,-0.31252,0.1549,0.56659,-0.85491,0.8478,-0.33835,-0.16544,-0.48802,0.49097,-0.1393
0.040594,-0.80673,0.88665,0.26393,-0.88232,-0.044803,-0.29692,-0.51176,-0.44936,0.23035,-0.59217,-0.48252,-0.40782,-0.90729,0.045743,0.57112,0.21967,0.34495,-0.86147,0.27965,-0.82428,-0.24174,-0.43469,0.76345,0.83196,0.14996,0.72123,-0.79274,0.90326,0.05837
-0.51987,0.59031,-8.2197e-05,0.074685,-0.97922,-0.62626,-0.34073,-0.22423,-0.27343,-0.92132,0.17005,-0.49267,-0.9982,-0.31783,-0.27494,0.49798,-0.35091,0.09681,0.47125,0.25002,0.58163,0.6782,-0.32893,-0.92454,-0.45301,0.30517,-0.15704,0.14519,0.81181,-0.080542
0.49984,0.55314,0.16522,-0.54983,-0.16672,-0.088957,0.60612,0.58807,0.51284,0.17622,-0.19075,0.84047,-0.50653,-0.94071,-0.45293,0.39774,0.83049,-0.46686,-0.24679,-0.56692,0.0038342,0.31581,0.39213,0.19302,-0.53035,0.3703,-0.46149,-0.50274,0.30044,-0.69744
0.81302,0.99675,0.32202,-0.66814,-0.56209,-0.76826,0.24315,-0.2392,-0.62712,0.81281,-0.52363,-0.4692,0.75736,-0.83122,0.73336,-0.51474,-0.43236,0.25943,-0.14147,0.291,-0.84835,0.46017,-0.52057,-0.79326,0.71741,0.26272,-0.054661,0.20932,-0.073171,-0.31298
-0.33912,0.31621,0.15345,0.32199,-0.26676,0.29062,0.40123,0.71301,-0.1943,0.65894,-0.87194,0.2073,-0.66477,-0.21142,-0.99905,-0.78833,0.31983,0.16602,-0.97432,0.81922,0.17932,0.50587,0.099046,0.23383,-0.89603,-0.88733,0.51931,-0.13336,-0.6223,0.003956
0.6191,-0.21562,-0.72863,-0.66726,-0.17493,0.59542,-0.52845,0.32471,0.82073,0.6219,0.42072,-0.89596,0.72322,-0.37124,0.87703,0.34926,-0.42855,-0.99268,-0.26444,0.87647,0.32814,0.87425,0.38618,-0.83372,0.68543,-0.60892,-0.024402,-0.5931,0.62073,-0.34381
-0.85988,-0.16032,0.02715,-0.35302,-0.182,-0.69148,0.27686,-0.31485,-0.9993,-0.72851,-0.52371,0.99252,-0.94837,-0.47146,0.15367,-0.96263,-0.42446,-0.88047,-0.44259,0.6409,0.32681,0.643,-0.12181,0.45959,-0.5737,-0.048988,-0.11063,0.73247,-0.32391,0.51836
0.2808,-0.51215,0.012232,-0.91388,0.45593,-0.60154,0.30923,-0.86051,-0.30102,-0.39996,-0.54326,-0.1795,-0.67756,0.95572,0.42193,-0.079027,0.20062,0.12523,0.18744,0.96712,0.70118,-0.22892,0.75682,0.13297,0.88198,-0.71362,0.8267,-0.61921,-0.84277,0.68074
-0.32443,-0.9223,-0.0079681,-0.69863,-0.42775,0.53132,0.70919,0.43748,-0.10654,0.13529,0.15372,-0.31208,-0.30931,0.58311,0.32159,0.11897,-0.10824,-0.77829,0.6075,-0.77457,0.81426,0.37258,-0.56351,0.62087,0.072567,0.36518,-0.75221,-0.27382,0.5074,0.94915
0.60675,0.71107,0.86116,0.4582,0.67702,0.83408,-0.0079441,0.35747,-0.48961,0.91302,-0.97603,-0.79883,0.45251,-0.061288,-0.49005,-0.616,0.77725,0.93418,-0.13419,-0.47737,0.22075,0.72131,0.86646,0.56548,0.85248,0.35379,-0.29345,-0.71711,0.74862,-0.62447
0.21243,-0.50204,0.61237,-0.20954,0.007612,0.83275,-0.59121,0.20103,0.9492,-0.69539,0.20584,-0.86749,0.045389,-0.3919,-0.42959,0.13108,-0.54975,0.46763,0.10825,0.25824,0.98517,0.40899,0.5468,-0.90875,0.6687,0.77866,0.051658,0.68468,-0.70965,-0.98871
-0.80925,0.044745,0.87578,0.55182,-0.19363,0.33946,0.89413,-0.74978,-0.34852,0.64049,0.88771,-0.27824,-0.26177,0.46359,0.10537,-0.36712,0.99111,-0.13614,-0.32771,0.83251,0.1465,0.99167,0.78738,-0.1129,-0.64775,-0.66838,-0.4014,0.31099,0.19501,0.94868
0.64374,0.1893,0.56388,0.82248,0.022415,-0.14096,0.078417,-0.73829,0.46993,-0.73223,-0.97731,-0.60695,-0.67599,-0.74334,0.43825,0.13131,-0.59741,0.090151,0.79455,-0.21536,-0.70973,0.024051,-0.97519,0.047485,0.87632,-0.88758,-0.23191,-0.77183,-0.96101,0.48699
0.58328,0.26489,0.21937,0.92242,0.44626,0.98411,-0.31983,0.5308,0.80154,-0.30564,0.38983,0.057044,-0.69049,-0.99801,-0.6259,0.92324,0.67191,0.024505,-0.32634,0.11791,0.39613,0.95158,0.1922,0.39895,0.30901,0.57219,0.71283,0.78113,-0.4417,0.27168
-0.0059719,0.17746,0.76552,-0.68309,0.88364,0.88696,-0.64877,0.044919,-0.077063,-0.054852,0.51579,0.71803,0.53538,0.54564,-0.43881,0.75634,-0.90019,0.51795,0.39563,0.019513,0.8276,0.98987,0.44728,-0.85087,0.14863,0.47144,0.28534,0.20268,-0.61155,0.43417
-0.95557,0.32909,-0.028419,-0.40644,0.76552,-0.61048,0.011892,-0.29945,-0.40331,0.92286,-0.97068,-0.71657,0.94079,0.11881,0.12269,-0.28715,0.50835,0.67893,-0.44345,0.94636,0.39472,0.41159,0.017327,0.27933,0.30481,0.54648,0.28726,-0.64438,0.28801,0.7395
0.42575,-0.80907,-0.54374,0.72518,-0.46106,-0.54539,-0.0088393,0.96655,-0.16954,0.59362,0.32391,-0.97703,-0.06749,-0.085913,0.49341,-0.2821,0.81539,0.46425,-0.4776,-0.29058,0.042091,-0.60064,-0.26611,-0.8539,0.058255,-0.6662,0.82178,0.18629,0.44422,-0.93126
0.88065,0.11015,0.33938,-0.95799,0.053785,0.75023,-0.60164,0.51311,0.44598,-0.66095,-0.79608,0.52369,-0.17028,0.74831,0.42004,0.38849,-0.012095,0.092806,-0.8176,-0.11404,-0.36781,0.042751,0.91602,-0.37089,-0.64638,0.51241,-0.96551,0.1866,-0.94435,-0.66498
-0.095132,0.4808,-0.38735,0.16104,-0.99771,-0.99262,-0.35098,-0.42936,0.99603,-0.83137,-0.3764,0.21109,-0.91442,0.70782,-0.86033,-0.37377,0.32785,-0.62385,-0.85351,0.63947,0.39539,-0.45673,-0.82362,-0.94593,-0.26821,0.0472,-0.25578,-0.64631,0.27185,-0.25271
-0.43169,-0.65454,0.47172,0.85373,-0.17033,0.67909,-0.53086,0.1334,-0.29293,-0.055214,0.20465,-0.17107,0.54172,0.1862,0.1072,-0.95854,-0.28406,0.43491,0.43476,0.59314,-0.61287,0.0826,-0.81647,-0.26761,0.19481,0.87867,-0.98907,0.97927,0.52946,0.75075
-0.5268,-0.18788,0.93871,0.29914,-0.23406,-0.26049,0.98589,0.97217,0.63132,-0.67981,0.29749,0.32979,-0.96563,-0.11818,-0.29936,-0.063541,0.031696,0.22954,-0.54388,0.10761,0.68118,0.37063,0.19107,0.49646,0.80669,-0.013231,0.70145,0.23926,-0.694,0.35643
0.52387,0.70129,-0.4455,-0.80207,0.24603,-0.70304,0.85101,0.40791,0.90525,-0.26771,0.54639,0.30146,-0.70922,-0.7464,-0.38935,0.17316,0.34473,-0.60425,-0.91088,-0.34627,0.57016,-0.011199,0.86767,0.35891,0.62647,0.1768,0.45549,0.63454,0.018759,-0.5875
-0.93629,-0.43545,0.33902,-0.45238,0.59862,0.11644,0.58188,-0.67833,-0.27288,-0.42425,0.81615,-0.21415,0.11085,-0.24713,-0.76932,-0.11854,0.17877,0.70978,0.59891,-0.17102,-0.60217,-0.87975,0.62981,-0.034638,-0.85934,0.1083,0.35756,-0.92741,0.59482,0.45743
0.40607,0.81156,0.52521,0.72916,0.6801,-0.45258,0.97958,0.93967,-0.29448,0.14059,-0.7552,-0.82062,-0.40477,-0.10919,-0.17839,0.70003,0.65496,0.90973,-0.9184,0.0095716,-0.13185,0.046074,0.4021,0.024965,0.74569,0.34949,-0.71734,-0.1143,0.075605,0.64821
-0.092782,-0.54675,0.0043131,0.60122,0.06409,0.95159,-0.4849,0.41068,-0.78831,0.12948,-0.67976,-0.45555,-0.14426,0.3615,-0.51534,0.52466,-0.53156,0.62509,-0.060123,0.77938,0.32609,-0.082982,0.38093,0.46732,0.021852,-0.23467,0.54149,0.86293,-0.27851,0.77465
-0.21471,-0.85005,-0.71354,-0.39136,-0.064828,-0.20097,-0.13601,0.10513,-0.55299,-0.18784,-0.75946,0.63729,0.48506,0.58214,0.035242,-0.69054,-0.089966,0.93321,-0.1825,-0.79389,0.12365,-0.096234,-0.90218,0.69719,-0.85025,-0.34806,0.2189,0.3615,-0.41835,-0.27359
0.2426,-0.77555,-0.24785,-0.66957,0.63339,0.76817,0.49834,0.21489,-0.055421,0.37301,-0.016839,0.85998,0.31274,0.99827,0.33702,0.74409,-0.13406,0.84492,0.24908,0.24559,-0.81915,0.39042,0.30763,0.32626,0.96313,0.01102,-0.18947,-0.68596,0.50568,-0.44673
0.26881,-0.60616,-0.079689,-0.5797,-0.041581,-0.21608,-0.86117,-0.82242,-0.4096,-0.89239,-0.22159,-0.43594,0.54936,0.12832,-0.074577,0.44771,-0.60744,-0.11348,-0.51607,-0.25576,-0.82516,-0.98468,0.65202,0.96603,-0.76746,-0.19251,0.92616,0.29877,0.19836,-0.71878
-0.33324,-0.73629,0.59998,0.12714,-0.027604,-0.95943,0.38328,0.72199,0.72709,-0.23792,0.81775,0.3022,0.14695,0.70855,0.11096,-0.56202,-0.76898,-0.98168,0.27718,0.38716,0.25818,-0.4768,0.53864,-0.72693,0.014483,0.5895,0.004341,-0.45886,0.1267,0.10389
-0.85818,0.53375,-0.97991,0.24269,-0.56803,-0.34557,0.37463,0.73481,0.096726,0.033132,0.17131,-0.5718,-0.98095,0.23657,0.21583,0.18431,-0.66407,-0.58099,0.10671,-0.9386,-0.14787,0.99856,-0.46909,0.53459,0.6346,0.74555,-0.86751,0.68044,0.70403,-0.47103
-0.21958,0.65771,0.18086,-0.20929,0.056686,-0.18632,0.21032,-0.32229,-0.79817,-0.1791,-0.58948,0.6731,0.62474,-0.92046,-0.96178,0.62582,-0.27398,0.30132,0.85303,-0.93738,0.12022,-0.55192,0.20231,0.78732,0.093759,0.53728,-0.71549,-0.66765,0.9675,-0.85087
-0.9838,-0.46513,0.83621,0.68446,-0.79056,-0.27169,0.31465,0.78014,0.082551,0.64334,-0.98052,-0.71089,0.24191,0.42833,-0.68326,0.34781,0.84497,-0.3327,-0.62778,0.11181,0.50979,-0.090016,-0.93967,0.42554,-0.77067,0.21243,-0.0039881,0.26075,0.057497,0.58007
0.073489,0.039305,0.15584,-0.35563,0.011603,-0.53022,0.96216,-0.87531,0.25547,-0.92689,0.83437,-0.80496,0.90315,-0.66863,0.8085,-0.011478,-0.82291,0.18476,-0.96195,0.62234,0.73875,0.51593,-0.38208,0.79898,0.75774,-0.68421,-0.33516,-0.50686,0.78722,0.11116
0.46086,0.37462,-0.97714,0.46959,0.74571,-0.5429,0.051829,0.11734,-0.46777,0.16771,-0.038023,-0.8847,-0.90157,-0.37992,-0.67327,0.23481,0.2099,0.53256,-0.047126,-0.0082818,-0.52891,0.002335,-0.69558,0.44058,-0.93568,-0.1644,0.27036,-0.84861,-0.45258,-0.96123
0.32097,-0.35638,-0.25438,0.83849,-0.21718,-0.7812,0.92953,-0.89459,0.74546,-0.79477,0.26626,-0.98136,-0.091191,0.66782,0.14598,-0.49126,-0.24456,-0.84162,-0.4002,-0.60136,0.84473,0.66439,0.66121,0.85526,-0.61321,-0.99251,-0.70629,-0.75621,-0.014541,-0.14946
-0.85111,0.65553,-0.40225,0.058506,0.78186,0.63179,-0.99752,-0.75907,0.35257,-0.62302,0.58414,-0.080948,-0.065597,0.84732,0.36861,0.77534,0.27169,-0.91403,0.67744,-0.16293,-0.54283,0.88901,-0.21248,-0.98634,-0.01887,0.47714,0.48059,0.28836,0.56256,-0.74902
-0.73057,-0.56427,-0.53828,-0.17619,-0.93955,-0.38982,-0.28029,-0.63732,-0.69429,-0.3276,0.47453,0.85054,0.07436,-0.7831,0.40977,0.48058,0.20975,0.26367,0.032911,0.77504,0.8795,-0.0010525,-0.38366,-0.047914,-0.30152,0.59383,0.88441,0.46672,-0.90647,-0.09359
-0.043257,0.23162,0.49731,-0.90309,-0.46857,-0.4005,-0.60817,-0.78944,0.10777,0.80946,-0.78639,-0.3682,-0.35374,0.9428,-0.63835,-0.76384,-0.82173,0.24292,0.38149,-0.56784,-0.08277,0.49575,0.71688,0.64472,0.013545,0.74607,-0.86593,0.096119,0.59337,-0.50874
0.058745,-0.89105,0.15283,0.59032,-0.65645,-0.93999,0.64043,-0.36672,0.96601,-0.65674,0.64514,-0.3724,0.025698,0.15502,-0.45864,0.067455,-0.13639,0.91698,-0.10826,-0.95323,-0.38524,-0.69418,-0.93829,-0.92327,-0.40213,-0.056649,-0.3809,-0.79764,0.55893,-0.51031
-0.1224,-0.86482,0.67804,-0.56813,-0.9913,0.76074,0.0049379,-0.48272,-0.55402,0.027331,0.47681,0.5072,0.43497,-0.27129,-0.052113,-0.98509,0.73169,-0.46814,-0.60216,0.49937,0.23451,-0.9594,-0.58461,-0.2986,0.404,-0.43568,0.45689,0.89284,-0.40927,0.59777
-0.40137,-0.92936,-0.87013,-0.19782,0.54885,-0.11369,0.44083,0.57277,-0.28681,0.49084,-0.80429,0.37381,-0.090779,-0.27284,0.17289,-0.58908,0.36709,0.51742,-0.53888,0.34872,0.61637,-0.074343,-0.11823,-0.26233,0.16218,-0.28414,-0.38115,-0.3072,0.95336,0.36539
0.54054,0.71014,0.90622,-0.52741,-0.76449,0.64261,0.55306,0.85664,-0.5056,0.37,-0.60657,-0.54103,0.54107,-0.59412,-0.33314,0.82684,0.5087,0.021394,-0.76697,0.10073,-0.18395,-0.30397,0.17703,0.44092,0.5311,-0.1207,0.041461,0.6449,0.24023,-0.093877
-0.16734,0.060368,0.22348,0.72157,0.76349,-0.95479,-0.79171,-0.74106,-0.22243,0.998,0.83361,0.3696,0.20165,0.70533,0.44733,0.21813,0.56833,0.66205,-0.32533,-0.68508,0.41524,0.92705,-0.8165,-0.99298,0.58219,0.44232,-0.12552,0.24926,-0.024977,-0.95041
0.015246,-0.50804,0.099124,0.64924,-0.10635,-0.38569,0.71659,-0.26421,0.43417,0.19714,0.73514,-0.034173,0.21605,0.45981,-0.76274,0.11244,0.2265,0.058233,-0.95775,-0.48594,-0.062145,0.6969,0.22219,0.5407,0.59791,0.44584,-0.88815,-0.6332,0.5621,-0.18705
0.24832,0.8766,0.36287,-0.35058,0.62413,0.40472,0.74255,-0.37386,0.629,-0.087712,0.63074,0.42972,-0.79753,-0.90616,0.55272,0.73028,0.59305,0.45266,0.15385,0.79787,0.19953,-0.7869,0.15669,0.14825,-0.26585,0.038506,-0.40619,-0.92585,-0.20263,0.10123
0.28182,0.62656,-0.087331,-0.09284,-0.13912,0.98824,-0.32302,-0.80829,0.799,-0.63858,-0.058311,-0.14005,0.45715,-0.28908,0.97628,-0.11447,0.94039,0.94719,0.96503,-0.093786,-0.48612,-0.29746,-0.37265,0.011513,-0.89648,0.9695,0.44407,0.11411,-0.71773,-0.89658
0.52273,-0.018823,0.1806,-0.59091,-0.34009,-0.87024,-0.1661,-0.70297,-0.13722,0.65284,-0.90987,-0.42113,0.65086,-0.76906,0.51438,-0.3787,0.33883,0.70157,-0.85388,0.90327,0.9006,-0.57182,-0.67591,-0.067496,-0.51556,0.023927,-0.35079,-0.73862,0.90591,-0.75001
0.39208,0.22094,-0.61968,0.99786,0.095368,0.95822,-0.32263,-0.003915,-0.84895,-0.92939,0.92088,-0.92453,0.34876,-0.25089,-0.57715,0.11424,-0.70202,-0.36169,0.30596,0.45584,0.20659,-0.67366,0.15794,0.062223,-0.23808,0.030093,0.89686,-0.18941,-0.25735,0.14646
0.41578,-0.46109,-0.48187,-0.75239,-0.3156,-0.30675,0.98561,0.13224,-0.38934,0.13785,-0.21154,-0.45992,-0.51608,-0.7704,0.47365,0.86496,-0.34412,-0.9299,0.98348,0.46908,-0.71492,0.52459,0.082582,-0.7695,-0.95972,0.80485,0.27036,0.94576,-0.78205,-0.42667
0.37752,-0.72905,-0.61313,0.29687,0.40854,0.37887,0.87537,-0.96459,-0.80114,0.94012,-0.09152,0.076714,-0.88904,0.11162,-0.63306,-0.31662,-0.92329,0.43605,0.53198,0.12355,0.26195,0.043087,0.093522,0.62845,0.26855,-0.89086,0.50396,-0.52445,-0.46599,0.13246
