0.90356,-0.58462,-0.14949,0.57206,-0.75476,-0.18174,-0.8432,-0.8615,-0.84329,-0.57056,-0.59709,0.4872,0.43325,0.40151,0.81567,0.79222,-0.31805,-0.80558,-0.69896,-0.99099,0.99057,-0.24966,-0.9337,0.085376,0.2523,-0.77764,0.79295,-0.26048,0.21616,-0.51334
-0.73858,0.56579,-0.66257,0.30118,0.92793,0.76188,0.1699,-0.52719,0.10879,0.99896,-0.18504,-0.88811,-0.91155,-0.17436,-0.32594,-0.56499,-0.29593,-0.81037,0.8022,-0.12321,-0.14628,0.87569,-0.0028983,-0.11544,0.079715,-0.18733,0.34331,0.20996,-0.96892,0.46995
0.081124,-0.34215,-0.94361,-0.44559,-0.50939,0.81692,0.96062,-0.19998,0.84009,0.62225,0.34442,-0.74506,-0.4349,0.70869,-0.95154,-0.53612,0.11295,-0.49015,0.81887,0.40881,0.47012,0.30197,-0.19965,-0.99414,0.84906,-0.92407,-0.86171,0.15957,-0.91998,0.94298
-0.27075,0.6459,0.42399,-0.37659,-0.52494,-0.78334,-0.94561,0.21845,-0.36784,0.35723,-0.96814,0.61558,-0.0097349,-0.90841,0.20673,0.15399,-0.99223,0.28003,0.72422,-0.54919,0.41273,-0.23565,0.5862,0.55573,0.42799,-0.98808,0.033836,-0.27107,0.076083,-0.69915
-0.21609,-0.19251,0.75423,-0.17842,0.84551,-0.63441,0.63534,0.79491,0.38032,0.74599,0.53013,0.44086,0.51619,-0.85744,0.60623,-0.40102,0.99201,0.93691,-0.0074634,0.8062,-0.57578,0.77397,0.70594,-0.13342,0.38055,-0.95041,0.27373,0.85656,0.46166,0.86525
-0.24875,0.6932,-0.01103,-0.14807,-0.96514,0.45897,0.1513,0.42007,-0.67322,0.97656,0.62486,-0.93977,0.24306,-0.34387,0.51759,-0.35356,-0.7942,-0.49505,0.4842,-0.97091,0.79742,-0.93852,-0.41,0.32746,0.93694,0.69015,0.33858,-0.66142,0.99789,-0.35117
0.4014,0.61208,-0.46941,0.15167,-0.57927,0.78258,-0.76747,-0.49641,0.39748,-0.19715,-0.67677,-0.30022,0.58905,0.17041,-0.29933,-0.37282,-0.33012,-0.77335,-0.34735,-0.6184,-0.099696,-0.2857,0.49932,0.71697,0.85572,0.48238,0.26653,0.86035,0.4678,-0.14352
-0.39369,-0.37645,-0.62154,0.19374,0.0048857,0.54036,-0.60956,0.26011,0.38087,-0.74449,-0.51099,0.97657,-0.47677,0.29288,0.70614,0.44678,0.78205,0.17985,-0.88486,0.42102,0.63572,-0.53019,0.92728,-0.50047,-0.03756,-0.62546,-0.63792,0.69316,0.19983,-0.9311
0.38213,0.75082,-0.79715,-0.27266,0.033344,0.43488,0.87381,0.48106,0.81129,0.83269,0.3509,0.31842,-0.30809,0.77222,0.98889,0.79993,0.68841,-0.69483,-0.32768,0.52789,-0.57025,-0.071828,-0.74549,-0.52458,-0.042644,-0.9907,-0.46187,-0.32852,-0.2117,-0.94669
0.85175,0.65671,0.78579,-0.32761,0.73103,-0.6697,-0.14917,-0.67619,0.54251,-0.97814,-0.83796,-0.18815,0.6894,0.7032,-0.12911,0.84585,0.96566,-0.70785,0.67218,-0.59444,-0.27864,0.95258,0.75754,-0.68068,-0.42286,0.13902,0.61447,-0.51606,-0.24302,0.19196
0.08557,0.63719,-0.088766,-0.12941,0.86441,-0.60293,0.17925,0.61884,0.69307,0.9977,0.43519,-0.056954,-0.2082,-0.95427,0.19001,-0.82405,0.34272,0.27994,0.053702,0.86363,-0.80517,0.40685,-0.28207,0.35635,-0.38592,-0.58858,0.052631,-0.73838,0.39115,-0.51223
0.15477,-0.35358,-0.2436,-0.50465,0.81462,-0.32586,0.87317,-0.78334,-0.83738,-0.056025,0.94741,0.058527,0.55727,0.037703,-0.15895,-0.13372,0.52212,-0.28318,-0.67349,-0.20597,0.29895,0.62489,0.26287,-0.3642,0.73484,0.70277,0.66615,0.71472,0.4274,0.094042
-0.53146,0.67364,0.73995,-0.42053,-0.21502,0.91242,0.0033952,-0.4435,0.34801,-0.88944,-0.45051,-0.054222,-0.93204,-0.43819,0.86099,-0.0038899,0.96776,-0.55447,-0.22239,-0.69431,0.66491,0.61411,-0.31127,-0.83971,-0.64273,0.20649,0.67517,0.026636,0.76552,-0.97585
0.69047,0.85589,0.92921,0.51832,0.10801,0.68865,0.2683,0.12447,-0.50856,-0.68686,0.57799,0.33848,-0.31004,0.4601,-0.10654,0.090954,-0.29584,-0.78319,-0.9521,0.40346,0.48127,-0.42202,0.84305,-0.97188,0.35071,0.77129,-0.56363,-0.27801,-0.65146,0.64116
-0.47786,0.97461,0.38884,0.0031157,0.59083,-0.56742,-0.34932,0.34331,-0.92104,-0.19327,0.58545,-0.37485,0.4855,-0.29294,-0.17436,0.48727,0.60177,0.46798,-0.51591,0.19998,-0.68984,-0.67525,-0.30776,0.50694,0.53473,-0.38601,-0.14771,0.16719,-0.13061,-0.2222
0.63199,0.89913,-0.93248,0.88454,0.80796,-0.69498,-0.20555,-0.53791,0.23737,0.087344,0.2809,0.66864,-0.12933,0.42382,-0.85107,0.96249,-0.23316,-0.98583,-0.33072,-0.57739,-0.015831,-0.2591,-0.10045,-0.073205,-0.53852,-0.5262,-0.74903,-0.072005,-0.42395,0.86816
-0.50417,-0.42402,0.55295,-0.44091,0.41884,0.73669,0.051417,0.025615,-0.67717,0.90329,0.37297,0.064095,-0.55967,0.44263,-0.12104,0.33767,-0.27668,0.40044,0.79083,-0.30657,0.71659,-0.67235,0.44961,-0.64175,-0.23195,0.29869,0.48126,0.05459,-0.64612,-0.89588
-0.64631,-0.47053,0.91973,0.0706,-0.37353,-0.66195,-0.12753,0.85903,0.48829,0.70572,0.94918,-0.58316,-0.024853,0.91006,-0.44015,0.61252,0.88887,0.84271,0.20463,0.78433,-0.47162,0.77363,-0.14658,-0.39878,-0.9424,-0.17324,0.24302,-0.7208,-0.36817,-0.69729
0.43697,0.83757,0.13844,0.17857,-0.97521,0.032519,-0.6802,-0.025786,-0.81374,-0.38028,0.22754,0.50809,0.90642,0.97697,0.22297,0.083301,-0.35248,0.35698,0.28267,0.28677,0.84767,-0.77963,0.31448,0.70942,-0.44263,-0.90373,-0.73899,0.2207,-0.24241,0.34445
-0.070768,-0.32363,0.13539,-0.40028,0.75163,-0.099919,0.48991,-0.10325,0.56242,0.68038,-0.56766,-0.99569,0.57537,0.25602,-0.40549,-0.55573,0.25032,0.95013,-0.2649,0.96868,-0.85207,0.23861,-0.11343,-0.073851,-0.40893,-0.5191,0.4023,0.092394,0.061932,-0.86425
-0.16301,0.13725,-0.79614,0.88736,0.9038,-0.3524,0.21764,-0.86919,-0.53772,0.25287,-0.12838,-0.050612,0.75781,-0.40584,0.83779,-0.3717,-0.18871,-0.28705,0.22741,0.1881,0.74351,-0.27344,0.12166,0.98857,-0.33454,-0.7186,-0.20044,0.60164,0.47766,0.80052
0.197,-0.32977,-0.029607,-0.19216,-0.85915,-0.86209,-0.78606,-0.27002,-0.12238,-0.45291,0.68418,0.85875,0.94088,-0.48906,0.82971,0.20712,0.55627,0.55078,-0.83359,0.48744,-0.3834,-0.92374,0.18502,0.05012,-0.055037,-0.30393,0.38108,0.026708,0.17478,-0.58306
0.22331,0.15478,0.52046,-0.45136,0.73836,0.35804,-0.27027,-0.013564,0.60691,0.024647,0.013092,0.79338,0.61729,-0.64791,-0.24332,-0.68189,-0.43268,-0.072231,0.24432,0.85609,0.22242,-0.84158,-0.33842,-0.46277,-0.95089,-0.5506,0.91345,-0.27279,0.26357,-0.88376
-0.47927,0.27428,0.00015809,-0.55061,-0.35851,0.38513,-0.62108,0.25822,-0.88306,0.5518,0.96827,0.22244,0.99893,0.6542,0.99727,-0.5899,-0.44865,-0.048721,0.45781,0.99561,0.20467,-0.44739,-0.99573,0.89423,-0.26576,0.76677,-0.16234,-0.4469,-0.46525,-0.10845
0.89445,0.96035,0.11388,-0.46161,-0.378,-0.64336,0.0058306,-0.45641,-0.43061,0.26326,0.84957,0.82964,0.32366,0.18855,0.56567,0.54176,0.51304,0.8081,0.78506,-0.0006831,0.24263,0.87416,-0.023875,0.4358,0.40999,-0.62919,-0.093101,0.24521,-0.94013,0.86411
-0.68963,-0.60246,0.81237,-0.53616,-0.74403,0.6398,0.88427,0.33003,-0.017064,-0.69272,0.062637,-0.52397,-0.79072,0.90388,0.55474,-0.31901,-0.014137,0.51207,-0.12795,-0.14563,0.79674,0.21508,-0.56768,-0.6575,-0.30693,-0.94779,0.022185,0.12498,0.13291,-0.80268
0.87219,-0.51864,-0.36557,0.72895,-0.47494,0.42344,-0.89107,0.64972,-0.26304,-0.38727,0.41687,-0.84209,0.51577,-0.71582,-0.16072,0.57825,-0.58141,0.85188,0.47544,0.58061,0.81395,-0.27327,-0.48437,-0.45334,0.9615,0.91584,0.95193,0.58734,0.51066,0.14095
0.31506,-0.88096,-0.56825,-0.093877,0.54438,-0.84944,-0.74788,-0.059918,-0.12566,0.95083,-0.31435,0.34664,-0.20601,0.033762,0.97764,0.51371,0.7159,-0.43637,-0.8382,0.70383,0.030599,0.37021,0.81977,-0.44214,-0.44814,-0.39614,0.22207,0.89026,0.55366,0.68511
-0.12913,0.64996,0.99532,0.75701,0.18592,0.49595,0.57963,-0.10218,0.35903,-0.18438,-0.99144,-0.74581,-0.40631,0.70792,-0.034971,-0.76377,-0.1701,-0.042079,0.82665,0.98854,0.033402,-0.89324,0.68653,-0.060306,0.66317,0.45467,-0.77091,-0.35126,-0.11187,0.94481
-0.18922,0.52207,0.13957,-0.30529,-0.5585,-0.17914,0.93091,0.26028,0.28313,0.094402,-0.19332,0.68964,-0.80544,-0.96534,0.62561,-0.42948,-0.27161,0.11358,0.82089,-0.43162,0.33895,0.82838,0.88465,-0.96405,0.40426,0.24476,-0.46942,-0.59086,-0.4183,-0.6095
-0.53753,-0.56139,0.87588,0.75599,0.61496,0.72496,-0.27683,-0.10807,-0.92581,0.97239,-0.74208,0.19382,0.47193,0.66066,-0.57211,0.25575,0.25899,0.57934,0.7646,-0.76713,0.54784,0.18162,0.87817,0.31421,-0.84482,0.075958,-0.079457,0.81421,-0.72541,-0.74749
-0.80817,0.26813,-0.13634,-0.70291,0.9803,-0.20295,-0.79309,0.5908,-0.82637,-0.60356,0.40606,0.76109,0.29334,-0.51532,-0.069628,0.52267,0.12419,-0.65034,0.12623,0.54824,-0.94002,-0.46329,0.26296,0.99866,-0.63722,-0.96961,-0.68676,0.32123,-0.97333,0.45526
0.92998,0.83627,-0.52545,0.19488,-0.39936,-0.96273,-0.59767,0.92071,0.3245,0.58158,0.83094,0.3602,0.49799,0.070996,0.03382,-0.38963,0.35627,0.40797,-0.040488,0.45745,0.49874,0.45885,-0.060188,-0.45445,0.46584,-0.33715,-0.89741,0.61948,0.65892,-0.39751
0.77549,-0.6811,0.90207,-0.47509,-0.035687,0.62965,-0.13889,-0.36045,-0.13034,0.74398,-0.41832,0.3108,-0.9348,-0.85647,-0.69241,-0.088641,0.14234,-0.74311,-0.76542,-0.045861,0.80276,0.62805,-0.21797,0.94995,-0.59649,-0.49305,-0.48504,0.82755,-0.26751,-0.10613
0.7326,-0.035259,0.13222,-0.37361,0.19711,0.90423,0.36748,-0.0943,-0.14962,0.17978,-0.34004,-0.62616,-0.18261,-0.20171,-0.3692,0.19694,-0.0097612,-0.98806,-0.29156,-0.81112,0.77856,0.257,-0.24673,-0.35916,-0.36016,-0.99656,-0.73238,0.80106,-0.29913,-0.85602
-0.3068,-0.20706,0.14378,-0.6175,0.57872,-0.41975,-0.66605,-0.42319,0.90023,0.888,-0.43,0.40484,-0.33676,0.0035602,0.91017,0.40351,-0.41561,0.14529,0.76123,-0.21667,-0.25334,-0.2058,-0.34121,-0.45976,-0.11669,-0.56352,0.51925,-0.5711,-0.73071,-0.0039757
0.8725,-0.4399,-0.36233,-0.050982,0.47311,-0.49615,-0.26729,-0.63832,0.51422,0.17538,0.78774,-0.4384,-0.63837,0.47874,-0.30621,0.39166,0.51143,-0.9677,0.37725,-0.95112,0.78488,0.87837,-0.5755,0.45923,-0.10122,-0.49425,0.54648,-0.66915,0.85748,-0.43336
0.90868,0.36865,-0.74966,0.24005,0.0064824,-0.37845,0.36096,0.16353,-0.77726,-0.81648,-0.022734,0.35559,0.99693,-0.012855,0.88323,0.32018,0.33195,-0.38306,-0.33034,-0.20605,0.68913,-0.79074,0.16297,0.71243,0.47499,-0.66046,0.80426,-0.11399,-0.49564,0.78592
0.98637,-0.76174,-0.43255,-0.28716,-0.83073,0.30987,0.27545,0.16884,0.034703,0.56914,0.5991,-0.55713,0.20392,0.4846,0.39151,-0.11654,-0.18791,0.89375,0.27805,0.1173,0.23402,0.20122,0.4971,-0.048239,-0.20885,0.26082,0.43728,0.36264,0.67735,-0.13234
-0.027107,0.79591,0.35621,-0.91121,0.43111,0.61292,0.92315,0.12066,0.38997,-0.15198,-0.67297,-0.03227,0.38717,0.22376,0.41845,-0.9639,0.91837,-0.33098,0.77665,-0.14298,0.66317,0.049438,0.74749,0.070333,-0.83672,0.99215,0.2818,0.8916,-0.059349,-0.82813
-0.41569,0.90606,0.36379,-0.99503,0.89928,0.17533,0.75276,0.5241,0.87524,-0.016824,-0.94573,0.48709,0.38225,-0.97151,-0.77609,-0.1556,0.41863,-0.30538,-0.72007,-0.20785,0.70633,-0.14689,0.45641,-0.61799,0.44029,-0.80277,-0.17669,0.45704,0.36779,-0.60171
0.27878,0.44939,-0.45631,-0.07593,-0.55782,0.37646,0.88652,-0.18889,-0.84848,-0.63745,-0.54642,0.98768,0.064598,0.82735,-0.074728,0.14643,-0.34032,0.35983,-0.93961,0.25944,-0.67324,0.032286,0.87106,-0.42441,-0.47794,-0.52023,-0.60281,-0.069812,-0.55692,0.13918
-0.28409,0.51923,0.037908,-0.85025,0.47466,0.68796,-0.50023,0.0073566,0.54307,0.45761,0.37776,-0.18129,0.43267,0.51535,0.66084,0.14031,0.55743,-0.025752,-0.092986,0.040035,-0.70663,0.726,-0.10384,0.58906,-0.10775,0.09758,0.42953,0.17015,0.86784,-0.36841
-0.050166,0.09589,-0.78456,0.62699,0.6168,0.75908,0.74965,0.28067,-0.89286,0.75687,-0.40027,-0.90738,0.9723,-0.4674,-0.33776,-0.65861,0.98705,0.96683,-0.59128,0.55482,-0.32524,0.005727,0.42664,0.14143,0.53256,-0.77296,0.41486,-0.48495,-0.83399,-0.19748
-0.74609,0.77168,-0.20779,0.87569,-0.1638,-0.95865,-0.60551,-0.89079,-0.31284,-0.33618,0.73816,0.96328,0.36408,-0.45717,-0.79917,0.52681,0.025507,-0.71193,0.14855,0.33863,-0.26733,0.0071599,-0.069502,-0.06593,-0.41276,0.79375,0.78795,0.87037,-0.33619,0.17971
-0.7621,-0.37269,-0.34918,-0.82955,-0.10312,0.16368,-0.60196,-0.33003,-0.90307,-0.43489,0.81316,-0.50497,0.053214,-0.61742,-0.035344,-0.80318,0.53026,-0.32936,0.94541,-0.97901,0.63254,0.99646,-0.94865,-0.97474,0.81255,-0.36965,-0.71595,-0.14554,0.59492,-0.16135
-0.31728,-0.5699,-0.49814,0.98825,-0.87973,-0.13653,0.48805,-0.96907,0.24643,-0.074532,0.95581,0.96616,-0.67627,-0.21134,0.25213,-0.39252,-0.58404,-0.16223,-0.60032,-0.25092,0.039784,-0.072322,0.78803,0.77967,0.60088,-0.86927,-0.079535,0.99675,-0.72009,0.50861
0.22546,0.6763,0.45237,0.085036,0.7245,0.6465,0.38559,0.98626,0.02725,-0.44104,0.012593,-0.17304,0.90559,0.36435,-0.60847,-0.74652,-0.18908,0.47678,0.17114,0.98665,-0.19657,-0.81878,-0.49681,-0.81859,-0.45267,-0.31706,-0.69924,-0.62857,0.82987,0.74737
0.53783,-0.49845,-0.42788,-0.5609,-0.48336,0.45961,-0.23989,-0.94724,-0.11759,0.40673,0.46131,-0.77538,0.33846,-0.78863,0.60075,-0.54535,0.84732,-0.76087,-0.37574,0.81624,-0.94469,-0.28829,0.28111,-0.17538,-0.15595,-0.1537,0.87425,0.056069,-0.33792,-0.50789
0.5002,0.31699,-0.54175,-0.78937,0.84974,-0.46006,0.45841,0.8479,-0.429,0.88112,0.71938,-0.14991,-0.89624,-0.5599,-0.93702,0.58509,0.65638,0.060217,-0.43034,0.20624,-0.034673,-0.75754,-0.69954,0.86075,0.092299,-0.58122,-0.40427,0.11796,-0.15202,-0.8903
0.64151,-0.95578,-0.18855,0.2792,0.53308,-0.31971,0.51093,0.6332,0.36451,0.63215,-0.56931,-0.90153,0.20987,-0.28181,0.39542,0.42321,-0.99745,0.51105,0.042534,-0.30319,-0.19672,-0.82106,0.32712,0.98482,-0.82339,-0.25655,-0.75787,-0.63171,-0.20285,-0.11661
-0.58934,-0.56901,-0.1308,-0.44641,0.78953,0.20094,0.22936,0.62872,0.93147,0.70873,-0.29618,-0.46277,0.43034,0.53753,0.062725,-0.13502,-0.21401,0.97215,0.80305,0.026679,0.029161,-0.53737,0.25473,0.43609,0.31471,-0.61325,0.30917,0.19148,0.25508,-0.91113
0.57902,0.84874,-0.42724,-0.23684,0.091122,0.096574,-0.6442,0.90061,-0.89932,0.74928,-0.73956,-0.17731,-0.87948,-0.21969,-0.2647,-0.96787,0.61059,-0.39437,-0.9821,-0.30958,-0.10118,-0.41832,-0.57349,0.93325,0.62402,0.60026,0.50869,-0.42296,0.66211,0.69599
0.45812,-0.28411,0.11091,0.2397,-0.24927,0.65443,-0.13473,0.60218,0.52995,0.39165,-0.22719,0.0019058,-0.10904,0.5712,0.94395,0.023628,0.5686,-0.24467,0.45948,0.8508,-0.89344,-0.60526,0.49216,0.81293,0.74079,-0.99634,0.91457,-0.60214,-0.6485,-0.57543
0.60117,0.60814,-0.67292,0.071638,-0.22029,0.24772,-0.81838,-0.92464,-0.28358,-0.93544,0.39946,0.72308,0.56158,-0.66416,0.69304,-0.95423,-0.68995,-0.18145,-0.47589,0.76028,-0.15435,-0.21218,0.42745,0.37387,-0.71308,-0.55293,0.95915,0.75023,-0.73639,0.3878
-0.28368,0.047741,0.86378,0.071367,0.74467,-0.096088,-0.16942,-0.04113,-0.9454,-0.046674,-0.8284,-0.012682,0.038453,0.055689,-0.95407,-0.85163,0.74886,0.33101,0.81826,0.076486,-0.7266,0.14495,-0.96938,-0.79448,0.73226,-0.20923,0.36645,0.61473,-0.092799,0.56456
0.9215,0.95165,0.8512,0.97849,0.35314,0.86408,-0.37891,0.23973,-0.86834,-0.34997,0.68163,-0.33852,-0.66156,0.34399,0.44026,0.22962,-0.46956,-0.25177,0.56507,0.79188,-0.87978,0.38342,-0.99196,0.4272,-0.77544,0.0083492,0.69154,-0.45265,-0.067757,0.38953
0.94427,0.70885,-0.75316,0.43552,0.65647,-0.24956,-0.1201,0.57483,-0.7682,-0.14202,-0.96461,0.20279,-0.22751,-0.66347,0.2424,-0.88876,-0.22267,0.31497,-0.77567,0.9476,-0.2267,0.64693,0.68319,-0.55797,0.05986,-0.44872,-0.69756,-0.7304,0.59975,0.47295
0.32874,-0.63184,-0.26969,-0.96401,-0.65591,-0.60042,-0.2772,-0.50205,-0.084175,0.72373,-0.58071,-0.40388,0.66789,0.34263,-0.091558,-0.80151,0.30359,0.27111,-0.72373,-0.5381,-0.87952,-0.10966,-0.10549,0.95059,0.24885,0.84247,0.94692,-0.81082,-0.602,-0.69406
-0.56776,0.55973,-0.26739,0.7413,-0.98047,-0.59488,-0.091156,0.34864,0.5418,-0.96214,0.98601,-0.71828,0.88726,-0.34649,-0.25463,0.99283,0.91475,-0.63711,0.62098,-0.62974,-0.13781,0.2545,0.13045,-0.3843,-0.50122,0.85874,-0.53621,-0.7685,-0.50061,-0.54648
0.63713,-0.50979,0.60806,0.78415,-0.57026,-0.35057,0.6181,-0.38693,0.25967,0.1464,0.42051,0.85543,0.19644,0.43525,0.71187,-0.84063,0.67644,0.59984,-0.68605,-0.36754,0.29777,0.6875,-0.34657,0.19745,-0.86497,-0.88873,-0.078949,-0.67333,0.66561,-0.42283
0.24436,0.40281,0.13946,0.67431,0.2326,0.25025,-0.091095,-0.41813,-0.74406,-0.81988,-0.75022,-0.55659,-0.21512,0.32375,0.085457,-0.79613,-0.80163,0.60398,0.72609,-0.97488,-0.27796,-0.20605,-0.18492,0.2962,0.62989,-0.66082,0.48256,-0.55292,-0.10148,-0.37381
-0.7491,-0.14258,0.46324,0.67478,-0.13542,0.39612,0.41629,0.033612,0.76875,-0.40323,-0.14491,0.068315,-0.64204,0.81683,-0.99689,-0.081549,0.202,0.25326,0.20875,0.56885,0.20206,0.45317,0.94647,0.70848,-0.84479,-0.25274,-0.90119,-0.57146,-0.20964,-0.60778
0.01981,0.87767,-0.37782,0.63275,0.26457,0.45875,0.7091,0.76004,0.4348,0.62877,0.19399,-0.16927,0.86032,0.44605,0.17665,-0.81159,-0.71006,0.65498,-0.33006,-0.30078,-0.80678,-0.30091,-0.84116,0.21397,-0.90568,-0.57534,-0.52735,0.89565,-0.9736,-0.63445
0.85563,0.38311,0.99978,-0.71747,0.10795,-0.94127,0.96309,-0.27334,-0.68099,-0.81279,-0.26354,-0.93226,0.79388,-0.62469,-0.92713,0.11054,-0.92315,0.099196,0.13466,0.17098,-0.5117,0.93697,0.54728,0.50396,-0.34436,0.29577,-0.53837,0.55621,-0.94748,0.9752
-0.48721,0.49175,0.98409,-0.30788,-0.40973,0.34561,0.86762,0.66264,-0.22669,0.84076,-0.65164,-0.25236,-0.97849,0.98957,-0.2065,-0.70073,-0.36789,0.41232,0.5275,0.48931,-0.18693,0.033558,0.48003,0.79182,-0.56217,-0.33631,-0.10056,0.024491,0.55368,0.97135
0.8655,-0.69752,0.06993,0.98739,0.80346,0.71591,-0.72436,-0.0074832,0.69358,-0.93215,0.77849,-0.50683,-0.65552,0.549,0.15508,0.90664,0.36648,-0.9286,0.21088,-0.68253,-0.47218,0.48405,-0.9077,0.14315,-0.31097,0.38269,0.85197,-0.84489,0.6399,-0.89242
0.31457,-0.82538,-0.086196,0.2884,0.99679,-0.26389,-0.72588,-0.017874,0.40632,-0.33141,-0.36477,0.82528,-0.62657,-0.77892,0.85845,0.66703,-0.29883,-0.90864,-0.95721,-0.48833,-0.74857,0.16024,0.89625,0.70081,-0.27433,0.88213,-0.87678,-0.0164,-0.22556,0.28956
0.93263,0.82339,-0.17539,-0.33667,-0.93022,-0.056595,-0.68282,-0.45963,-0.91847,0.24261,0.877,-0.53067,0.55692,-0.015799,-0.47893,0.22101,0.33406,0.87162,0.10882,0.71147,-0.77705,-0.75361,0.60357,-0.68755,-0.2773,0.46771,-0.31257,0.082495,0.52094,0.72016
-0.34059,0.14343,0.58673,-0.6265,0.50074,0.63876,-0.86121,0.84171,0.066561,0.86906,-0.36009,-0.61812,-0.51676,-0.97887,-0.28752,0.73689,-0.4994,-0.58834,0.54571,-0.66145,0.53813,-0.37874,0.39616,-0.72888,0.99921,0.45696,0.70572,0.74611,0.458,0.85777
0.4458,-0.97313,-0.73632,0.90745,0.54622,0.26389,0.46633,0.4251,-0.62391,-0.09407,0.31668,0.085823,0.57305,-0.5022,-0.90876,0.56673,0.78647,-0.52126,0.39857,0.68152,-0.22655,-0.069663,-0.18263,-0.90282,0.87357,-0.90245,-0.85815,-0.43996,-0.75403,-0.3275
0.35855,-0.49827,-0.022653,-0.35609,-0.1204,-0.70591,-0.33801,0.16094,0.22048,0.80448,0.77812,0.71781,0.26085,0.84694,0.81404,0.78652,0.89415,-0.5116,-0.56754,0.4922,0.5739,0.3942,-0.11366,-0.31341,0.93752,-0.43385,-0.57549,-0.70299,0.13206,0.087798
-0.84347,0.81177,0.98974,-0.14683,0.071972,0.94133,-0.019834,-0.60969,-0.58235,0.85154,0.74931,-0.47234,0.51825,0.22931,0.44236,0.81937,-0.2554,0.4808,-0.85659,-0.12573,-0.67603,-0.46471,-0.98818,-0.41941,-0.34452,0.68717,-0.90609,0.80455,-0.12118,0.48786
0.14024,0.35554,-0.14028,-0.92805,0.15243,-0.27517,0.32504,-0.81024,-0.068107,-0.59019,-0.72619,0.0010155,-0.41212,-0.51354,0.67382,-0.40207,0.37112,-0.30889,0.96612,-0.1176,0.77849,-0.93703,0.72144,0.87082,-0.83341,-0.25697,-0.12746,-0.047304,0.90732,0.0024307
0.4699,0.92561,0.6094,-0.51162,0.2069,-0.18621,0.93931,0.23741,0.93395,-0.50606,-0.0038453,0.57504,-0.71074,0.97866,-0.92919,0.031584,0.98257,-0.6903,-0.092915,0.79657,0.55994,0.61006,-0.62668,0.98866,0.956,0.10322,0.95292,0.75799,0.55712,-0.93884
0.29144,0.15806,0.034483,-0.34859,0.39818,-0.35489,0.31225,0.48362,-0.35586,-0.20971,-0.98792,0.2285,0.64115,0.85482,-0.60643,0.59069,-0.46044,-0.14971,0.29726,0.21982,-0.92792,-0.0039528,-0.49848,0.69771,0.096128,-0.64633,-0.97517,-0.6782,0.188,-0.25531
0.24646,-0.045666,-0.60364,0.79334,-0.16479,0.98195,-0.76918,-0.63301,0.71723,-0.018884,0.027994,-0.5841,0.62257,-0.46796,0.99028,0.1181,-0.75992,0.14306,-0.38084,0.077634,0.18364,-0.44725,0.76604,-0.078035,0.28364,0.57688,0.040889,-0.95213,-0.13329,-0.16133
-0.034305,0.031735,-0.37989,-0.69447,0.77443,-0.79531,-0.74325,-0.74185,0.1612,-0.23393,0.52692,-0.87126,-0.096443,0.24963,0.8339,-0.5581,0.37606,0.41034,0.28767,-0.90338,-0.85371,-0.19501,-0.37144,0.8079,-0.7488,0.30529,-0.57821,0.18655,0.23466,-0.70045
0.0054786,-0.70841,0.13486,0.097225,-0.96512,-0.30417,-0.32033,-0.25587,0.13045,0.76017,0.63219,0.93346,0.60111,-0.046028,0.65378,-0.83805,0.063789,0.73097,0.61442,0.14619,0.021695,0.97628,-0.32948,-0.39759,-0.40759,0.06843,-0.67926,-0.14377,0.5254,-0.64351
0.17445,0.38877,-0.597,-0.18723,0.65899,-0.20937,0.13309,-0.41375,0.026084,-0.84459,-0.5921,-0.064531,0.57599,-0.93198,0.28349,0.96113,-0.53488,0.97521,0.20754,0.53823,0.28325,-0.29493,0.27684,0.57273,0.93823,-0.16972,-0.024947,0.90027,-0.5036,-0.32288
-0.84044,0.02685,0.21869,-0.34429,-0.93117,0.44008,0.67791,0.30444,0.40487,-0.93376,0.62689,0.45415,0.60214,-0.80545,0.30312,-0.44783,-0.92323,-0.88086,0.98539,-0.038331,0.084021,0.51187,-0.82797,0.93166,-0.61774,-0.26328,-0.72228,-0.66292,0.83025,0.81952
0.39655,0.13399,0.95631,-0.10777,0.80826,0.34968,-0.61911,-0.97247,0.34679,0.62041,0.51201,0.1575,-0.80404,0.97127,0.5447,0.1615,0.50202,0.077023,0.5912,0.80139,-0.23806,0.89281,0.61409,-0.52342,-0.88494,-0.91371,0.087858,-0.31688,-0.34311,0.84486
-0.40321,0.95967,0.68386,-0.32117,0.35635,0.35798,0.475,-0.57722,0.16935,0.77754,-0.52608,-0.58951,-0.76168,-0.60477,-0.82241,0.8855,0.68277,0.2531,-0.55794,0.26641,-0.73131,-0.66305,-0.66628,0.66104,-0.84121,0.93895,0.2164,-0.34823,0.94344,-0.054059
0.043874,0.56625,-0.46523,0.55175,0.15328,0.64549,-0.70248,0.52749,-0.93164,0.37157,-0.41681,0.85147,-0.53053,-0.0039997,0.40787,0.23375,0.28049,-0.1508,-0.46272,-0.033978,-0.14754,-0.12611,0.84155,0.30924,0.06953,-0.37638,0.16802,0.26508,-0.10863,0.35817
0.40058,0.62707,0.47001,-0.40369,0.085995,0.39638,-0.44283,0.2299,-0.26307,0.5127,0.9327,-0.11884,0.13911,-0.82789,-0.54133,-0.24348,0.099328,0.68544,0.70171,-0.92776,-0.93378,0.28604,0.76043,-0.83353,-0.11892,-0.39114,-0.85011,0.88693,0.28522,-0.44223
-0.46997,0.136,0.90215,-0.81035,-0.8139,-0.41942,0.34691,-0.18735,-0.52762,0.49588,0.11192,0.8247,0.62408,-0.66582,0.93102,-0.26764,-0.53053,-0.13601,-0.055481,-0.45228,0.34989,-0.851,-0.1024,0.5819,0.10093,-0.7255,0.023308,-0.64081,0.9316,0.64651
0.11322,0.82132,0.72582,-0.35727,-0.098221,-0.93041,-0.76642,0.35984,0.1665,-0.64661,0.014284,-0.54492,0.53598,-0.74526,-0.45543,0.98163,0.80016,0.94083,0.50385,-0.017391,0.83866,-0.50809,0.87475,0.88109,0.61724,0.37294,0.15707,-0.3854,-0.22903,0.44307
-0.95146,-0.33649,0.22032,-0.47559,0.89702,0.4497,0.78052,-0.33642,0.03203,0.30146,-0.66346,0.9576,0.87993,-0.95136,-0.94605,-0.36668,-0.99593,0.082232,0.72565,-0.37733,-0.22235,0.73609,0.21949,0.34694,0.014615,0.7481,0.4782,-0.047176,0.58183,0.84867
-0.23808,0.43604,-0.85926,-0.39069,-0.28516,0.9754,-0.78124,0.76619,-0.49327,-0.86235,-0.89412,-0.57122,-0.97548,-0.61389,-0.96436,-0.043705,0.161,0.37453,0.51682,-0.15697,0.057823,0.11323,-0.00095276,0.80158,0.81491,0.39803,0.58144,-0.21254,0.30785,0.48653
-0.30612,-0.72197,-0.74516,-0.0032102,0.68742,-0.55673,-0.2446,-0.41545,0.79135,-0.31562,-0.87253,-0.77784,0.5006,-0.74917,0.56604,-0.50794,-0.39712,0.43675,-0.10537,0.80862,-0.11937,0.63529,0.65088,0.85436,-0.53181,-0.62572,0.37815,0.41173,0.4278,-0.31317
-0.083911,0.8149,0.49694,0.00023191,0.16375,-0.6408,0.58991,0.65486,0.59292,-0.26711,-0.20628,0.25493,0.17251,0.32874,-0.3386,-0.83697,0.11166,-0.40939,0.75188,0.36386,-0.48621,-0.88355,0.8697,0.78771,0.14553,0.86973,0.70693,-0.22951,0.26651,-0.88738
-0.25346,0.68122,0.26057,-0.62322,0.72387,-0.29671,0.11085,0.82582,-0.72059,-0.86458,-0.014301,-0.50185,-0.096808,-0.90958,-0.73878,0.78869,0.54153,0.97383,-0.65441,0.22115,-0.99433,-0.27568,0.45974,0.22113,0.94341,0.58882,0.11785,0.29296,0.96572,0.094413
-0.22734,-0.34917,-0.081777,-0.97778,0.60178,-0.21432,0.54927,0.86266,-0.80952,0.24694,-0.62263,-0.73507,-0.66228,-0.0020981,0.34719,-0.2777,0.96453,-0.43062,-0.16867,0.61479,0.65937,-0.29343,0.8926,-0.72673,0.29519,-0.3221,-0.98145,0.39291,-0.76602,0.22498
-0.67258,-0.5455,0.1171,0.68541,0.095658,0.79617,0.76391,0.5259,-0.88142,0.90896,-0.22725,0.44853,-0.09287,-0.69818,0.67077,-0.41307,0.035135,-0.62461,-0.25269,0.80291,-0.12289,-0.78698,-0.7578,0.71719,0.35341,-0.98619,0.53191,0.61357,-0.010583,0.072061
-0.044593,0.57715,-0.25227,0.90017,0.45906,-0.62934,-0.033036,0.23768,0.032956,-0.17868,-0.89934,-0.42424,0.22471,-0.27818,0.037019,0.63374,0.79219,0.70222,-0.23687,-0.32469,-0.33154,-0.70538,-0.36444,0.53794,-0.11115,0.80981,0.43116,-0.52737,0.32498,0.87797
0.88744,0.85605,0.33692,0.42589,-0.26455,-0.64105,0.20835,-0.41069,0.66997,0.90971,-0.099907,0.79557,-0.84492,0.38716,0.54133,-0.4783,0.6814,0.6503,0.43842,0.94902,-0.62181,-0.31126,0.65319,0.56248,-0.97616,-0.84789,-0.79664,-0.52559,-0.95259,-0.92064
-0.61423,-0.34191,-0.57287,-0.9407,0.57699,-0.075712,0.77423,-0.33571,-0.87329,0.88702,-0.042243,-0.70004,0.94656,0.22822,0.73178,0.064724,-0.35704,-0.30488,-0.89088,-0.77468,-0.34264,0.4938,0.72641,-0.4279,0.34896,0.88146,-0.19544,-0.93292,0.29985,-0.69459
0.90014,-0.71045,0.24252,0.092346,-0.16612,0.047242,-0.19813,-0.0029757,-0.2209,0.77112,0.19261,0.39629,0.79393,-0.11542,0.47463,0.81884,-0.97545,0.40274,-0.52305,0.03288,-0.56309,0.28536,0.33288,0.023437,0.16086,-0.83021,-0.73839,-0.71078,0.58537,0.3828
-0.41181,0.19578,0.67186,0.53673,0.50487,0.63155,-0.11157,-0.70543,-0.6546,0.18906,0.25615,0.73959,-0.22311,-0.30972,0.83297,-0.91822,-0.25284,0.88314,0.64035,0.68475,-0.47564,-0.94256,-0.80424,-0.48322,0.813,-0.97364,0.71229,-0.098202,-0.49576,-0.19611
0.70594,-0.53224,-0.39907,-0.70691,0.54447,-0.10817,0.048734,-0.7883,0.0070506,0.86257,0.21227,-0.11008,-0.77905,0.89072,-0.8092,-0.6115,-0.33502,-0.34843,0.17784,0.99267,0.85111,0.87061,0.65789,-0.86803,0.16288,0.77964,0.0059058,0.99579,-0.51341,-0.41811
-0.46983,-0.58846,0.94802,-0.31364,0.65733,0.69376,0.54958,0.43434,0.21867,0.22734,0.2659,-0.42795,-0.92062,-0.23406,-0.86433,-0.42994,-0.71299,0.057561,0.77604,-0.9794,0.70316,-0.74036,0.99882,-0.10439,0.91672,-0.049785,-0.010159,0.83845,0.40345,0.48014
0.32663,-0.58004,-0.92203,-0.3556,0.7367,-0.78523,0.52154,0.40554,0.048158,0.36913,0.88788,-0.17743,-0.18614,-0.91741,-0.2803,-0.058051,0.55379,-0.23055,0.86546,0.94425,0.40464,0.8215,-0.37436,-0.25344,-0.96142,0.16656,0.075685,0.64533,0.7935,-0.79069
-0.79817,0.41578,0.14747,0.75977,0.10403,0.48538,0.87014,-0.16552,0.085142,-0.48823,-0.73893,-0.076331,0.74281,-0.89389,-0.5968,0.70234,0.86681,-0.13366,0.89951,0.91974,0.58669,-0.50847,0.57696,0.33539,0.01989,0.52955,-0.92645,-0.72797,-0.29111,0.46115
-0.68622,0.73896,0.66399,-0.033611,0.4898,-0.77791,0.9622,-0.37467,0.57906,0.11239,0.051751,0.45856,-0.14756,-0.16195,-0.032378,-0.39442,-0.032799,0.55278,0.64478,0.62553,-0.48539,0.76177,-0.21465,-0.60502,-0.55252,-0.011339,-0.63591,0.12103,0.86728,0.45765
-0.039442,-0.39781,0.36551,-0.93383,0.83122,0.99175,-0.26125,0.68928,-0.6951,-0.15685,-0.39707,-0.19262,-0.27666,0.5595,0.082939,-0.13637,-0.95407,-0.27249,0.24447,-0.17429,0.69909,0.60262,-0.34849,0.097157,-0.28375,-0.13493,-0.41627,-0.63231,0.46373,-0.62914
0.088515,-0.66011,0.50447,0.57874,-0.36843,-0.21195,0.43666,-0.64913,0.67665,-0.42194,-0.012804,-0.2852,0.5462,-0.21338,0.53972,-0.37986,-0.31991,-0.033092,0.23239,0.80361,0.10513,-0.044864,0.20035,0.47346,0.4227,0.9979,0.15542,-0.81284,-0.93912,-0.87971
-0.60229,-0.63681,0.24961,0.98747,-0.07596,0.71254,0.46419,-0.049121,-0.2236,-0.090886,-0.98302,-0.27777,-0.76046,0.56562,-0.89934,0.89431,0.65322,0.79331,-0.89055,-0.10029,-0.007768,0.087241,-0.25471,-0.83997,-0.50866,-0.70144,0.25542,-0.95436,-0.704,0.089533
0.64814,0.40723,0.42029,-0.7568,-0.21447,0.85014,0.26837,-0.99374,0.81334,0.35023,-0.92098,-0.19416,0.65347,0.30174,-0.55547,0.15783,0.76917,0.69264,-0.015409,0.49714,0.1154,-0.99262,-0.84644,0.34203,-0.59179,-0.67958,-0.50807,-0.15164,0.0033637,0.19972
0.43676,-0.301,0.24474,-0.94863,0.33934,-0.84083,-0.40351,0.53554,0.90847,0.063078,0.072048,0.57694,0.22277,0.92269,-0.88474,0.64005,-0.34634,-0.3197,-0.35537,0.65538,0.97086,0.80058,-0.34812,0.66434,0.96921,-0.40063,-0.46262,-0.39729,-0.93136,0.34197
-0.24815,0.70162,-0.58883,0.50628,0.70833,-0.86521,-0.3998,-0.45909,0.76591,0.3473,-0.050583,0.046494,-0.58805,-0.51234,0.81444,-0.52389,-0.11802,-0.80205,-0.0037133,0.76872,-0.97265,0.66316,0.81283,0.46551,0.28565,-0.92482,-0.46202,0.73631,-0.11239,0.19046
-0.44455,-0.020465,0.045159,0.59239,-0.29451,-0.88219,0.60002,0.15243,-0.50821,0.045557,0.58015,0.83981,0.82618,0.57099,-0.54208,0.50169,0.68216,-0.29739,0.5361,-0.27014,0.73231,-0.15937,0.21755,0.70074,-0.20193,0.67526,0.98338,0.046186,-0.69788,-0.056679
0.6439,0.41613,0.93912,0.73847,0.7944,-0.85003,-0.0073535,-0.16565,0.71103,-0.24711,0.95421,0.89272,0.90865,-0.67873,-0.077488,0.60909,-0.5713,0.19534,0.32329,-0.39958,0.31804,0.55457,0.89933,-0.96905,0.81795,0.3296,-0.8899,-0.052792,0.89893,0.37055
0.24956,-0.072871,-0.7638,-0.80085,-0.84151,0.41014,0.94357,0.27288,0.61117,-0.45029,0.76543,0.3548,-0.83576,-0.45993,-0.17797,0.94044,0.84458,-0.73176,-0.42646,0.64082,0.63153,0.36526,-0.52107,-0.97964,-0.59067,0.81792,-0.28108,0.3711,-0.93666,-0.1351
-0.27582,-0.51832,-0.82922,0.27272,-0.28354,-0.040115,-0.83102,-0.10897,-0.98414,0.72568,-0.082742,0.12072,0.44987,-0.68472,-0.57542,0.21158,-0.7791,-0.13209,-0.19778,-0.69718,0.53847,0.63059,0.67895,0.27434,0.28985,-0.04637,-0.16375,0.74737,-0.50177,0.13536
-0.1786,0.57368,-0.025568,0.36288,0.1225,0.19916,0.37275,0.077323,0.92915,0.20059,-0.788,0.60579,0.34469,0.84596,0.54302,0.76107,0.26468,-0.72606,0.18484,0.97538,0.055121,-0.82988,-0.42929,-0.58451,-0.20246,0.94613,-0.65906,-0.91153,-0.87182,0.441
0.91921,-0.78328,0.97979,-0.8867,-0.55947,-0.7609,0.27799,-0.8814,0.99383,0.49395,-0.13158,0.28758,0.057309,0.89523,-0.84187,-0.36013,0.31108,-0.092562,-0.68502,-0.75067,-0.22451,-0.68092,0.54573,-0.38569,0.15301,-0.29912,-0.11967,-0.036943,0.32835,0.67035
-0.417,0.69246,-0.25521,-0.85813,-0.022205,0.66839,-0.90991,0.151,-0.92015,0.42816,-0.32556,-0.6042,0.21983,-0.98055,-0.7929,0.84942,0.07124,-0.22796,0.93181,0.43398,0.52814,-0.12944,-0.74605,0.90594,0.62261,0.73177,0.78772,0.67132,-0.81103,0.96185
0.1049,0.0831,-0.45997,0.74433,0.055308,0.59583,0.11776,0.8702,0.46228,-0.57853,-0.84638,0.85504,0.9298,-0.33033,-0.81896,-0.98409,0.46185,0.47532,-0.8391,-0.82238,-0.63243,-0.21075,0.15633,-0.58041,-0.15461,-0.51682,-0.40899,0.32876,0.83542,0.62986
0.29751,0.49449,-0.61643,-0.59963,0.63693,-0.52146,0.40244,0.77166,-0.59566,-0.36658,-0.30684,0.27303,-0.7194,-0.60007,-0.26202,-0.41573,0.43025,0.69427,-0.32178,-0.28659,0.50086,0.11893,0.074674,0.068986,-0.60061,0.92762,0.30344,0.8903,0.19438,-0.93253
0.55921,-0.94658,-0.52212,0.094787,0.77504,0.023855,0.69768,-0.72197,-0.80298,0.3728,-0.12195,-0.6502,-0.78524,-0.59173,-0.81593,0.36631,-0.12427,-0.93189,-0.37235,-0.22377,-0.6117,-0.93359,0.15606,-0.13648,0.62099,-0.7114,-0.01811,0.35526,-0.8685,-0.30555
0.89107,0.37585,0.59251,-0.20393,0.20148,-0.5469,-0.86065,-0.10323,-0.32504,0.63732,-0.66859,-0.83909,0.54803,-0.70867,-0.20376,0.76955,0.80182,-0.25824,-0.78291,-0.23495,0.3221,0.062451,0.45134,-0.040877,0.0077481,0.7238,0.738,0.49604,-0.165,0.58559
-0.85905,0.994,0.77992,-0.022408,0.39627,-0.7659,-0.66756,-0.45378,0.23239,-0.16638,0.70304,0.059322,0.48203,-0.45408,-0.61134,0.41378,0.16086,0.42761,-0.34821,0.97956,0.94944,0.61976,0.25917,-0.22883,-0.59668,0.83096,-0.43846,0.31398,0.75009,0.41613
-0.47076,0.75582,-0.3903,-0.87934,-0.35129,0.48263,0.048507,0.73027,0.45439,0.47486,-0.23648,-0.43112,-0.51256,0.79204,0.058379,-0.79681,0.92772,-0.59177,0.94154,-0.95032,-0.15703,0.12953,0.12038,-0.42541,0.0057857,0.13689,-0.3135,0.45067,-0.67816,0.16827
-0.55595,0.79905,-0.27228,-0.60829,0.18468,0.034412,-0.92664,-0.048925,0.73884,-0.36138,-0.88637,0.15545,0.67353,0.51272,0.54071,-0.1241,-0.76487,-0.63268,0.93811,0.47479,0.89627,0.72762,-0.44483,0.16692,-0.76398,0.85689,-0.16493,-0.29021,0.39531,0.28526
-0.68705,-0.67672,-0.75935,0.038578,-0.53845,-0.87788,-0.19842,0.36884,0.083036,-0.73129,-0.86495,0.55279,0.9532,0.36455,0.8317,-0.72876,0.68082,0.23066,0.37948,-0.38871,-0.044138,-0.034047,-0.18646,0.2385,-0.33227,-0.66512,-0.29049,-0.31773,-0.09675,-0.038764
-0.54814,-0.46251,-0.034471,-0.25243,0.92695,-0.17632,-0.79151,0.35893,0.26695,-0.83412,-0.063586,-0.75778,-0.80202,0.16523,-0.79338,-0.55265,0.94782,-0.25862,0.74413,-0.5603,-0.6808,0.69679,-0.52558,-0.63609,-0.49052,-0.7983,0.73994,-0.36376,-0.23397,-0.54819
-0.36085,-0.016752,-0.17057,0.81997,-0.0088212,-0.37333,-0.66283,0.52059,0.91458,-0.94989,0.51826,-0.36616,0.54797,0.065941,0.34523,0.62579,0.9609,0.12905,0.49169,0.18152,0.86123,-0.28879,-0.26214,0.58655,0.82965,0.91499,-0.99513,-0.12882,-0.98038,0.73631
-0.24627,-0.43961,-0.88179,0.91655,0.82174,0.043048,-0.22619,0.16932,-0.48359,0.049359,-0.78637,-0.87499,-0.10506,-0.23696,-0.35512,0.4916,0.99586,0.32227,0.48326,0.27183,-0.11957,0.77429,-0.88465,-0.69446,0.16344,-0.28307,-0.01048,0.94409,-0.73217,-0.99266
0.99112,0.93067,0.88627,-0.94484,-0.15947,-0.33837,-0.77165,0.19898,0.44157,-0.1576,0.46439,0.4282,0.19289,0.87165,0.94068,-0.54188,-0.66375,0.55148,0.89274,0.55752,-0.38409,0.74566,-0.75686,-0.41783,0.21826,0.37118,-0.04808,0.36316,-0.49412,0.96131
-0.8151,0.062641,-0.5026,-0.55027,0.89564,0.30766,0.12222,0.45993,0.91781,0.62504,0.088323,-0.080719,-0.87768,0.21082,0.81847,0.78991,-0.71831,0.26028,-0.60432,-0.88916,0.48244,-0.28894,-0.55704,0.38101,0.51298,0.9829,-0.39112,0.44459,-0.73771,0.40328
0.33523,0.54365,-0.73448,0.1662,-0.0050195,0.68139,-0.68669,0.024874,-0.96777,0.60325,-0.018552,0.52729,-0.72242,0.77111,-0.2291,0.75036,-0.12348,0.33284,-0.71304,0.79435,0.42287,-0.38608,-0.712,-0.3734,-0.17579,0.92416,0.60666,-0.41352,-0.77672,0.32214
-0.66863,-0.56338,0.64504,-0.05305,0.023515,-0.96161,-0.57624,0.78316,0.83832,0.10336,-0.75187,0.22972,0.43087,0.083824,0.019926,0.37348,-0.69419,-0.87328,0.96606,-0.60724,-0.084933,0.29687,-0.5481,0.10311,-0.94099,0.0040349,-0.23975,0.38487,-0.41068,0.58791
0.91187,0.7083,-0.28994,-0.1662,0.5404,-0.78816,-0.070512,0.76334,0.95226,-0.29912,0.24155,-0.51628,0.31192,0.47024,0.12267,0.67738,0.17703,-0.68478,0.24952,0.76739,-0.16435,0.23698,0.97657,0.75483,-0.84894,0.98407,0.67015,0.35031,-0.7205,0.3276
0.60035,0.36207,-0.94729,0.52271,0.41502,0.69,0.75711,0.53486,0.77951,0.61666,0.67603,0.25901,-0.96194,0.28983,0.065008,0.64401,0.70292,-0.18088,-0.73856,-0.35245,-0.95722,-0.32336,0.66931,0.90868,0.4807,0.4685,-0.75903,-0.71916,-0.063569,0.67994
-0.31942,0.039877,-0.26575,-0.74121,0.3861,-0.40302,-0.52691,-0.31625,0.22676,0.90443,-0.16869,-0.71241,0.045025,0.18547,0.034535,-0.38184,-0.11088,0.56201,-0.20123,-0.54311,0.60215,0.96417,-0.51768,0.97243,0.71326,-0.029978,0.63052,-0.34123,-0.23583,-0.33806
-0.41742,0.027573,-0.0012017,0.87596,-0.067332,0.52589,0.78223,0.55592,0.75279,-0.67349,0.263,0.26338,0.8685,0.6636,0.073935,0.060898,0.41587,0.89157,-0.015279,-0.099339,0.2521,-0.69922,0.38352,0.44614,-0.20412,0.33766,0.75424,0.27274,-0.66219,0.43431
0.56087,0.23827,-0.55404,0.27907,-0.76989,-0.37681,-0.77471,-0.32716,0.87177,-0.88629,0.10639,-0.29148,0.040373,0.33343,-0.092482,0.43293,-0.6517,0.61588,-0.76801,-0.75066,-0.057922,-0.68236,0.81076,-0.86873,0.76885,0.127,0.18061,0.23632,-0.32623,-0.86977
-0.43226,-0.60151,0.85583,-0.9593,0.92866,0.23802,-0.48013,-0.6814,-0.070134,0.16435,0.084517,0.90452,0.92464,0.063933,0.50704,-0.018495,0.39099,-0.5596,-0.20535,0.30287,0.028739,-0.48244,0.43485,-0.83195,-0.17517,-0.50692,0.042935,0.71021,-0.47911,-0.54869
0.35751,0.38883,-0.026393,-0.34056,-0.17514,-0.86274,0.59363,-0.90988,0.59775,-0.7052,0.19329,-0.032273,0.8514,-0.81611,-0.8817,-0.63461,-0.77802,0.87388,0.3151,-0.9794,0.30721,-0.87177,-0.43884,0.14294,-0.51657,-0.14499,0.95469,0.29019,0.26726,-0.55421
-0.27512,-0.63365,-0.24159,0.24913,-0.8113,-0.43762,-0.76183,0.017904,-0.64748,-0.62007,-0.62518,-0.078044,0.03886,0.9457,0.70154,-0.019234,-0.9685,-0.7955,0.45397,0.10875,0.7543,-0.70682,0.84433,0.15405,0.1466,0.22567,-0.93104,-0.612,0.40915,-0.051063
-0.1492,0.049746,-0.65996,-0.57223,0.18664,-0.62539,-0.22852,-0.5891,-0.81235,0.088553,-0.6616,-0.77727,0.98963,0.56794,-0.10428,0.19798,-0.8716,-0.55635,-0.65601,0.76287,0.70007,0.19636,0.20923,-0.35103,0.36363,0.65188,-0.46348,0.42743,0.26913,-0.76382
-0.34521,0.58995,0.84059,0.72861,-0.28417,-0.99332,0.70522,0.94719,-0.41861,0.021763,-0.71385,0.51102,-0.48668,-0.30347,0.50457,-0.60411,-0.91564,-0.67397,-0.15245,0.61483,-0.58169,-0.68086,-0.82434,-0.98699,-0.63047,0.2185,-0.75127,-0.76515,0.56799,-0.75243
-0.54081,-0.42681,-0.73797,-0.81423,-0.3343,-0.7012,-0.084949,0.034201,-0.78568,-0.75439,-0.52574,-0.59204,0.62268,0.38059,-0.90506,0.35163,0.4252,0.93451,0.92073,-0.87171,0.45677,0.7696,-0.0041159,-0.7874,-0.84717,-0.96558,-0.24168,-0.63919,0.28673,0.97943
0.14422,-0.11257,0.23315,-0.52143,-0.86962,-0.89983,0.61613,0.71755,0.39542,0.94213,-0.03156,-0.19714,0.17216,0.2419,-0.58436,-0.82526,-0.53755,-0.20333,-0.57767,-0.43986,0.85249,-0.39949,0.93227,0.51703,-0.57813,0.25989,-0.22103,-0.39329,-0.18667,0.43655
0.27779,-0.80196,0.94938,0.64623,0.26822,0.69583,0.79899,-0.77632,0.65471,-0.75708,0.057033,0.096273,-0.26133,-0.2373,-0.9739,0.024989,0.52793,-0.32108,-0.94316,0.68529,0.13481,0.011251,0.76882,-0.22,-0.88384,0.80034,0.53888,-0.58093,-0.3108,-0.75173
0.45615,0.088981,-0.52888,-0.40446,-0.43172,0.36332,-0.32778,0.11952,0.43792,-0.82012,0.25172,-0.46197,-0.46458,0.71698,0.36447,-0.98872,0.86661,-0.9792,-0.57383,-0.28768,0.5045,0.48349,0.95335,0.28311,-0.69016,0.56516,-0.87189,0.4258,-0.15142,0.38276
-0.34412,0.93678,0.28414,0.097174,-0.54439,0.99738,-0.37112,-0.6178,0.79131,-0.21023,-0.86087,-0.77557,-0.44089,0.85354,-0.20031,0.34451,-0.42187,0.49587,-0.80857,-0.96258,-0.74887,-0.64318,-0.14989,0.87467,0.12698,-0.78241,0.67812,-0.52264,-0.56138,0.62717
0.75988,0.33481,-0.9402,0.086586,0.99784,-0.8477,-0.69278,-0.97606,0.98437,0.6962,-0.16652,0.92517,-0.38255,-0.39961,0.15113,-0.80639,0.40022,-0.43899,0.049859,0.078261,0.89617,-0.17668,0.7119,-0.61393,-0.80211,-0.53523,0.96299,-0.60129,0.56337,0.89617
-0.67,-0.42508,-0.4465,0.48265,0.29262,0.22052,0.06196,0.23382,0.75828,-0.40393,0.92236,-0.53407,-0.22312,0.56718,0.55144,-0.92333,0.61944,-0.045972,0.28175,-0.41818,-0.25751,-0.94272,-0.091474,0.27456,-0.33481,-0.32949,-0.29711,-0.53054,0.46881,0.56129
-0.458,-0.0018079,-0.30803,-0.11845,-0.31144,-0.71694,0.50179,-0.45052,0.17834,0.024631,0.30715,0.011478,-0.40013,-0.50111,0.1636,0.14696,-0.34618,0.64255,0.005494,0.88681,0.16742,-0.54226,-0.95644,-0.46768,-0.39831,0.31547,-0.46072,-0.70759,-0.61283,-0.028799
-0.23453,-0.26842,-0.52873,0.48676,0.20907,-0.58324,-0.41269,-0.21356,0.73826,-0.86173,0.93599,-0.63264,-0.66444,0.32974,-0.24929,-0.9456,0.82218,-0.55255,0.12447,-0.30203,0.68494,-0.24441,-0.33879,-0.58895,-0.7035,0.76505,-0.50665,0.44678,-0.27542,0.8188
0.80261,-0.29991,-0.50094,-0.46884,0.43278,-0.62483,-0.49701,-0.76463,0.29277,-0.56859,-0.27661,0.39806,0.92692,0.53279,-0.5593,0.13164,-0.58924,-0.12765,0.30244,0.77565,-0.97996,0.57402,-0.57836,0.28203,-0.68382,0.21863,0.51357,-0.53771,-0.27749,0.11231
0.087973,0.20489,0.28787,-0.50633,0.58092,-0.032669,-0.49642,-0.23074,0.07633,-0.44019,-0.83207,-0.40709,0.20439,0.98958,0.18124,-0.35559,-0.97507,0.36171,-0.60455,-0.52461,0.80803,-0.030859,0.72309,0.60195,-0.41926,0.3698,0.54403,0.46274,0.83905,0.72736
-0.69438,0.48631,0.92777,0.42066,-0.16546,0.5605,0.45687,-0.84065,-0.94768,0.98603,0.24142,0.91526,-0.56316,-0.62084,-0.4511,0.14391,-0.13661,0.97298,0.18672,0.8853,0.79709,0.043462,-0.11622,0.41618,-0.71221,0.031444,0.58032,-0.3788,0.978,0.94741
0.29026,-0.26468,0.14171,-0.074775,-0.078673,-0.24778,0.35225,-0.52781,-0.082976,0.71147,-0.20543,0.041943,0.60452,-0.36875,0.60755,-0.97661,-0.05746,0.38931,-0.41313,0.18086,0.35518,-0.52014,0.11697,-0.85537,-0.79717,0.55881,-0.1323,-0.80425,0.40397,0.94826
0.45392,-0.6666,-0.12668,-0.7259,0.63897,0.5645,-0.40389,0.4209,0.60271,-0.64494,-0.2027,-0.15734,0.35531,-0.11699,0.44218,-0.57181,0.9447,0.41973,-0.3228,-0.41912,0.86316,0.50129,0.027941,0.64684,0.2518,-0.28879,0.20718,-0.053674,-0.54479,0.056586
-0.68371,0.18336,-0.42179,0.66367,-0.21223,0.30349,0.089013,-0.098877,0.29601,0.091766,0.61928,0.32458,0.72492,-0.03848,-0.59395,-0.47454,0.16625,0.28604,-0.51807,0.19751,-0.68139,0.32706,0.3406,-0.52139,0.73986,0.4094,0.61244,-0.73094,-0.87409,-0.5624
0.76173,0.17474,-0.87109,0.63067,0.77295,0.49518,-0.82526,-0.241,-0.29704,0.84329,-0.11869,-0.18148,0.6134,0.45502,0.87809,-0.84696,-0.56071,0.9432,0.93913,0.34817,-0.77304,-0.25586,-0.4834,-0.34314,0.37872,-0.41477,-0.61356,-0.028761,-0.033165,-0.34261
0.27051,0.39456,-0.73042,0.22163,-0.27605,0.67808,-0.87389,-0.89469,-0.22152,-0.060323,-0.89044,0.45421,-0.93719,-0.91369,0.46321,-0.13578,-0.52366,-0.00045499,0.69088,0.63936,0.45175,0.066211,0.13298,-0.99716,-0.8434,0.42796,0.10927,0.50375,0.18391,0.46684
0.67944,-0.31917,0.89376,0.12275,0.064684,0.58783,0.37101,0.74805,-0.2657,0.017102,0.95502,0.61554,0.87402,-0.19366,-0.12798,0.41552,0.91005,0.66684,-0.14901,-0.94649,-0.33056,0.64007,0.38928,-0.91486,0.41547,0.98732,-0.52949,-0.55229,-0.57452,0.64878
-0.023641,0.061744,-0.69605,-0.90254,-0.32128,-0.059595,0.36433,0.17437,-0.65712,0.1988,0.085548,0.5623,0.40974,-0.33311,0.87257,0.80229,-0.017332,0.65025,-0.83852,-0.83182,-0.76307,-0.11699,0.22035,-0.052269,-0.70339,0.94023,-0.28165,-0.75887,0.61197,-0.7487
0.92955,-0.60746,0.26204,0.84178,0.89965,-0.56565,0.47634,-0.90815,-0.21709,-0.60231,-0.85985,0.34459,-0.071615,-0.97589,0.33029,-0.26098,-0.31817,-0.87749,-0.32573,0.37216,0.056637,0.48834,0.85369,-0.14915,-0.81468,0.75177,0.66042,-0.047323,0.68255,0.18881
0.23682,0.87889,-0.28997,0.49119,0.64102,-0.067757,-0.81885,-0.50597,0.14728,-0.18999,0.13565,-0.73017,-0.32401,0.65166,-0.59687,-0.37132,0.7097,-0.55619,0.56208,0.0096575,-0.63283,-0.086761,-0.78493,0.37649,-0.14198,0.77981,-0.89966,0.64251,-0.11364,-0.16415
-0.064565,-0.62625,-0.84337,0.66742,-0.62336,-0.19087,-0.20128,0.09612,-0.29177,0.029867,-0.14923,-0.7237,-0.33785,0.15646,-0.47139,-0.54473,0.46219,0.29638,0.59878,0.95439,0.29053,-0.3845,-0.67796,0.89371,-0.87402,-0.35717,-0.58734,0.34117,0.9347,0.071439
-0.71977,-0.26032,0.71016,-0.58725,0.13489,0.8556,0.82193,-0.828,0.26505,-0.72804,0.55557,0.57533,0.38403,0.52898,0.35751,-0.22591,-0.60885,-0.16216,0.9537,0.94352,-0.13954,0.67628,0.090796,0.10964,-0.78693,0.93814,0.26841,0.44634,-0.30461,0.33004
0.5541,-0.28858,-0.32847,0.98801,0.9646,0.3938,-0.6611,-0.055108,-0.64771,0.90849,0.37176,0.2717,-0.35614,-0.62191,0.66707,-0.80176,0.80785,-0.97966,0.9402,0.40643,-0.63836,0.48751,-0.66622,0.69616,-0.94867,0.72987,0.19714,-0.41811,-0.27479,-0.79468
0.34909,0.14402,0.77479,0.96512,-0.17208,-0.54059,-0.42793,0.26827,0.06074,-0.93738,-0.79727,0.061962,-0.61469,0.56765,-0.45951,0.65765,0.90015,-0.010811,0.23537,-0.80816,-0.20579,0.94467,-0.24479,0.43275,0.32401,0.9983,-0.25389,0.15564,0.99836,0.14125
-0.62088,0.81053,-0.56347,0.39042,0.13046,0.42221,0.031794,-0.094843,-0.15778,0.91836,-0.78303,-0.50443,0.44291,-0.57102,-0.40676,-0.50249,-0.30885,-0.14248,-0.80624,-0.98507,0.32819,0.94692,-0.89195,0.52562,0.91055,0.5795,0.70097,-0.16086,0.2991,0.34812
0.70125,-0.45409,-0.87229,0.97219,0.12009,0.79358,0.39312,0.17818,-0.27354,0.79157,0.76843,0.74875,0.86925,-0.052423,-0.91351,0.52458,-0.61322,0.17086,0.92115,-0.64937,0.45627,0.020926,0.77522,0.54339,0.61139,-0.96111,-0.50455,-0.99945,-0.011845,0.22957
0.16258,0.993,-0.536,0.93228,0.055526,0.36903,-0.0018556,-0.45404,-0.32983,0.85099,-0.90491,0.97801,0.20786,-0.78429,-0.023881,-0.50965,-0.52546,0.83048,0.0028779,0.17788,0.84462,0.35149,0.39064,-0.99439,-0.14204,0.10077,0.77457,0.47851,-0.2576,0.064666
0.9085,-0.95549,-0.94553,0.41333,-0.12038,-0.74732,-0.72364,0.55354,-0.62261,0.83773,-0.68154,-0.22321,0.25532,-0.79842,0.6442,0.18372,-0.56056,-0.80305,0.72147,-0.38517,-0.16743,-0.41357,-0.99021,-0.98294,0.030352,-0.64685,0.39236,-0.4661,0.83396,-0.22702
0.0084137,0.28409,0.27435,-0.60999,0.18114,-0.71518,0.59171,0.84871,-0.8505,0.99087,-0.55832,-0.020169,0.74685,0.047045,0.64544,-0.43511,0.74079,-0.883,0.65554,-0.87043,-0.84065,-0.823,0.48883,0.2621,0.93345,-0.90091,0.36584,-0.020116,0.3278,0.36661
0.75896,0.19488,-0.02127,0.4319,-0.29054,0.59101,-0.29365,0.34671,-0.071764,0.2366,0.051345,-0.38824,-0.59083,0.93764,0.20562,-0.052155,-0.92866,0.28513,-0.77545,0.82932,0.82037,-0.12073,0.020546,-0.53946,0.082867,-0.38313,0.98448,0.56538,-0.67925,-0.11924
0.40466,0.58961,-0.46698,0.77003,0.96844,-0.9414,-0.77659,0.61325,0.65268,0.27742,-0.62298,-0.25696,-0.49983,-0.23563,-0.39358,-0.74104,0.25549,-0.16878,0.22032,-0.9522,0.83044,-0.77897,0.26815,-0.075214,0.90166,0.66718,-0.89159,-0.42708,0.40048,-0.29388
0.9095,0.060118,-0.31775,-0.36211,-0.57642,0.41149,0.31633,0.69058,-0.25626,0.20868,0.9288,-0.94204,-0.017171,0.52437,0.68567,-0.97251,-0.10089,-0.0904,0.25905,0.61072,-0.91075,0.084701,0.14378,-0.20107,0.071218,0.34424,0.15005,-0.6987,-0.85601,-0.42776
-0.18819,0.049526,-0.1513,-0.47725,-0.79507,-0.5306,-0.10025,-0.54558,-0.057601,-0.60829,-0.15188,-0.53008,-0.20994,-0.87831,-0.18356,-0.11915,0.55936,0.33131,0.17102,0.63997,-0.52787,0.72296,-0.89681,0.69043,0.51515,0.13302,-0.73039,-0.53632,0.23698,-0.90432
0.71705,0.2436,-0.56141,0.98212,-0.92251,0.93024,0.2934,0.87372,-0.89878,0.68437,0.29525,0.34698,0.74022,0.087236,0.82436,-0.6977,-0.026755,0.29148,-0.22034,0.2415,0.30713,0.59128,0.27722,-0.76332,0.18033,-0.84136,-0.54958,-0.097768,0.69421,0.69766
-0.52434,-0.0025006,0.14461,0.22513,0.14684,-0.77266,0.87279,-0.14521,-0.83438,-0.50375,-0.49529,0.015514,-0.88634,0.55387,0.94189,0.15932,0.93297,0.20036,0.74275,0.77001,0.3599,0.43115,-0.13342,0.70779,0.54569,0.25518,-0.40996,0.32071,0.89118,0.63101
0.95906,-0.80581,-0.13508,-0.82793,-0.86115,-0.15806,0.67375,-0.13591,-0.16219,-0.065304,0.13628,0.3594,-0.42616,0.29168,-0.64168,-0.35865,-0.94599,0.70972,-0.46129,0.17713,-0.97224,0.99547,-0.24742,0.56147,0.99836,0.73322,0.66554,-0.90327,-0.16531,-0.91981
0.7496,0.49596,0.037431,0.94732,-0.082739,-0.20663,-0.45063,0.051551,0.0082566,0.37508,0.23608,-0.024138,0.66036,-0.38872,0.93785,0.58923,0.86168,-0.77981,0.71389,-0.97423,0.15387,-0.17025,-0.92644,-0.15415,-0.18657,-0.19647,-0.89623,-0.26246,-0.73644,0.92235
0.19155,-0.35057,-0.6461,-0.4765,0.099887,-0.68451,0.067738,-0.19274,-0.70625,-0.73306,0.61088,0.34274,0.40579,-0.19571,0.74245,-0.97688,-0.93167,-0.014519,-0.35988,0.49016,0.023819,-0.26108,-0.1385,-0.59481,0.87759,-0.34351,0.097306,0.98276,0.64785,0.88727
-0.6528,0.40652,0.19118,0.20249,-0.33808,0.2416,0.76444,-0.80302,-0.10253,-0.056293,0.66878,-0.98853,-0.51908,-0.99443,-0.51521,-0.89413,0.40022,0.46753,-0.30457,0.59415,-0.069172,-0.59581,-0.74678,-0.61067,0.97131,-0.98521,-0.59922,0.073143,-0.68964,0.53976
0.48478,0.23179,-0.87873,-0.76092,0.10859,0.64604,-0.057981,-0.6868,-0.081866,-0.20684,-0.36527,-0.17182,0.76648,-0.67302,-0.83261,0.79831,0.24599,-0.26999,-0.040347,-0.59064,0.36986,0.79917,-0.55983,0.35312,-0.46335,0.79353,0.83345,0.80154,0.24208,0.65607
-0.84859,0.57958,-0.52397,0.61171,-0.95959,0.26426,-0.64221,-0.2289,0.083781,-0.42827,0.9564,-0.36408,0.19414,0.43236,0.30279,-0.4859,-0.020664,0.93726,-0.91385,0.11514,0.26552,-0.29099,-0.46872,0.44624,0.91483,-0.64819,0.646,-0.40526,0.86976,0.57738
0.74406,-0.40597,-0.58001,0.72346,0.084458,0.52367,0.09142,0.12433,-0.16966,-0.5287,0.18741,0.94807,0.89313,-0.53408,-0.045326,-0.29441,-0.8425,-0.70604,0.36157,0.69793,0.52711,-0.71741,-0.90719,0.51204,0.031075,0.79487,0.9956,-0.84884,-0.66005,-0.019088
0.84121,0.32187,-0.655,-0.82944,-0.070024,0.2713,0.034678,0.44903,-0.95112,0.7169,-0.2819,-0.88411,0.61043,-0.92928,-0.75742,-0.9681,-0.65684,-0.45216,0.3014,0.55659,0.11853,0.88503,-0.86273,-0.61974,-0.43868,-0.99432,-0.35106,0.46236,0.92289,-0.60177
-0.65882,-0.85626,0.32606,-0.65921,0.67656,-0.71017,-0.56041,0.3678,-0.62826,-0.86087,0.84008,-0.33992,-0.098355,-0.0013074,-0.7214,0.039116,0.55059,0.48457,0.72741,-0.92767,0.56523,0.78041,-0.90038,-0.68395,-0.99288,0.68768,0.042584,0.14908,0.71998,-0.98846
0.48331,-0.29257,-0.062325,-0.28293,0.053173,0.72636,0.19703,-0.15671,-0.89354,-0.884,0.39012,0.92806,-0.94233,-0.058153,0.36271,-0.40028,-0.69886,0.69037,0.82824,-0.77955,-0.47703,0.10215,0.26187,0.65025,0.71526,0.58974,-0.94205,0.18331,-0.50513,-0.84148
0.53165,0.49955,0.31575,0.079817,-0.89759,0.45272,-0.40689,-0.30344,-0.25051,-0.56978,0.47255,0.72894,-0.30746,0.084633,-0.33874,-0.49747,0.99693,0.18181,-0.49608,0.31187,-0.68589,-0.86957,-0.77901,0.10809,0.096946,-0.82666,0.29895,0.13691,-0.41982,0.11359
-0.8958,0.78407,0.0043026,-0.57578,-0.15391,-0.27943,-0.35521,0.44372,-0.77103,0.26484,-0.45506,-0.018651,0.39578,0.54341,-0.75332,-0.68249,-0.83847,0.67736,-0.86198,-0.21612,0.85072,0.33879,-0.97765,-0.28821,0.96115,0.35616,-0.90491,-0.25525,0.21089,-0.089196
0.3674,-0.13485,-0.70584,-0.55112,0.84584,-0.22723,-0.062035,0.36104,-0.031575,-0.75018,0.31616,0.63616,-0.22443,-0.97353,0.44406,0.43182,0.76498,0.40899,-0.69442,0.0023814,0.61988,0.049349,0.90156,0.36364,0.50743,0.5896,-0.78998,0.40762,0.58347,0.96832
-0.44767,-0.28262,-0.1829,0.54008,-0.44505,-0.34434,0.62913,-0.10907,0.81459,-0.44345,-0.49661,-0.63966,-0.76703,-0.41267,-0.97117,0.24689,-0.078648,-0.62808,0.0031438,0.068798,-0.10768,-0.99869,-0.99215,0.079435,-0.13597,-0.20716,-0.90393,0.72583,-0.49682,0.87756
0.37067,0.30734,-0.98601,0.79226,-0.46472,0.3216,0.39299,-0.47188,-0.21271,-0.061097,-0.28128,0.34455,0.42577,-0.77846,0.98551,0.52425,0.032965,0.84196,0.64382,0.19968,-0.043512,-0.26385,-0.61306,0.99354,-0.47344,-0.75931,-0.00099823,-0.12785,-0.20357,0.60022
0.35203,-0.91704,-0.80999,-0.9617,0.99033,-0.5063,0.39822,0.47694,-0.89161,0.49854,0.83969,0.59867,-0.21753,0.14546,-0.68631,0.82369,-0.11294,-0.46273,0.00025676,-0.87817,-0.88874,0.48202,-0.90753,-0.77913,0.27342,-0.78958,0.56707,-0.46819,-0.16782,0.79015
-0.68737,-0.72328,0.98625,0.64733,-0.74948,0.98621,-0.61937,-0.70151,0.4792,0.18791,-0.8254,-0.60197,-0.067388,-0.85477,0.71156,-0.18526,0.91325,0.82702,0.85375,-0.40466,-0.20247,-0.29542,0.58869,0.24084,0.3806,0.9622,-0.18164,-0.30365,-0.42051,-0.36708
-0.3122,0.39906,-0.3646,0.17898,-0.13142,-0.22888,0.84295,-0.61922,0.60202,-0.16937,-0.89443,0.58452,-0.12866,-0.44234,0.54032,0.84004,0.2392,0.54151,0.5706,-0.2433,0.97152,-0.93734,-0.19636,-0.45752,0.52277,0.22076,0.65011,-0.38287,-0.90683,-0.10678
-0.30056,-0.2778,-0.030967,0.96575,0.066614,-0.49131,-0.5735,0.66013,-0.83776,0.96183,0.87886,0.32969,0.89964,-0.055267,0.029025,0.087156,-0.3286,-0.2983,-0.99084,-0.54409,-0.41915,0.82188,-0.82677,0.49504,0.15217,-0.44947,0.90399,-0.66955,0.38317,0.89233
-0.53707,-0.66079,-0.77455,-0.89368,0.053804,-0.48084,0.73632,-0.62758,-0.58091,-0.10603,0.28263,0.070379,-0.47863,0.20563,-0.23097,-0.58572,-0.10828,0.52704,-0.72636,-0.90789,-0.16494,-0.89461,-0.99625,0.30069,0.21805,-0.15468,-0.91715,0.31496,0.56828,0.17637
0.99206,-0.082004,0.44264,-0.23769,0.9154,-0.32345,0.90059,-0.15411,0.12963,0.69236,0.78126,0.65991,-0.15634,0.8691,-0.95538,-0.72064,0.4905,-0.66883,0.11134,-0.87585,0.89737,-0.2698,-0.60066,-0.51695,-0.62836,-0.42396,-0.81307,0.81006,0.20008,0.43607
-0.91296,0.18751,0.18311,-0.60556,-0.91708,0.66811,-0.11879,0.5603,-0.44368,0.65261,-0.57321,-0.12791,-0.38647,-0.56843,0.54205,-0.41496,0.10769,-0.12199,-0.69418,0.7532,0.32248,-0.74897,-0.13682,-0.77148,-0.64212,-0.3491,-0.24488,0.45524,0.47594,0.32386
-0.5849,-0.6954,0.55546,0.21228,0.53075,-0.26848,-0.34627,-0.097342,0.89371,-0.55571,-0.71174,-0.37406,0.011066,-0.57051,-0.57675,-0.72574,0.48759,-0.52873,-0.67508,0.47233,0.60206,0.93679,0.22511,-0.55553,0.10986,-0.54815,-0.72787,0.3107,-0.42169,-0.71395
-0.3241,-0.62319,-0.13729,-0.77982,-0.21222,-0.5381,0.15828,0.65321,0.34637,-0.57334,-0.53373,-0.66364,-0.70391,0.54699,0.7544,-0.89177,0.26149,-0.94367,0.24115,0.07877,0.12612,0.26713,0.39147,0.71415,0.068074,0.28372,0.71904,0.55484,-0.85624,-0.61507
0.60149,0.54668,-0.68932,0.62599,-0.35745,0.1627,-0.48112,-0.99735,-0.81495,-0.79179,0.76136,0.9019,0.72099,-0.80374,-0.67757,0.72726,-0.67113,0.59982,-0.14662,-0.2755,0.29872,-0.1295,0.24677,-0.85733,-0.8947,-0.49617,-0.57739,-0.48197,0.74553,0.66903
-0.073079,0.72817,0.77927,-0.95102,0.13765,0.51054,0.26642,0.86673,-0.45959,-0.38983,0.30491,-0.70888,0.37608,-0.43433,0.79587,-0.18913,0.20179,-0.14328,-0.40973,0.23668,0.63613,-0.70872,-0.11751,-0.074814,0.59777,-0.91062,0.75688,0.83184,0.325,-0.37461
0.32299,-0.55269,-0.75749,0.4745,0.079646,-0.34106,-0.018322,0.61046,-0.49308,-0.62048,0.94608,0.84136,0.21498,0.99759,-0.67711,0.872,-0.21563,0.49996,-0.3692,-0.37719,0.28047,-0.97681,0.097627,0.73021,-0.75417,0.77698,0.68409,0.64723,-0.47378,0.53379
0.68006,0.75608,-0.76216,-0.87451,-0.93638,-0.56665,-0.28067,-0.090723,-0.52739,0.6955,0.50455,-0.73997,0.6854,-0.49208,-0.026172,0.19164,0.1857,-0.47638,-0.66095,-0.85263,0.76525,-0.80076,0.13486,-0.63371,-0.044933,0.36649,0.42611,0.37512,0.81413,0.98556
0.70967,-0.091718,0.80056,0.74109,0.38382,-0.84956,0.79212,0.61345,0.17216,-0.31448,0.52537,-0.94879,0.47522,0.452,0.2976,-0.90805,-0.71713,-0.128,0.96199,0.2662,-0.50966,0.26176,-0.71046,-0.5105,-0.74079,-0.025415,-0.098608,0.39315,-0.75661,-0.37489
-0.056445,0.91024,-0.16604,-0.34082,-0.23931,-0.26369,0.11582,-0.8574,0.67007,0.91573,-0.32098,0.34547,0.73133,0.47272,-0.27996,0.97188,-0.18032,-0.075383,0.17131,0.74442,-0.19508,-0.20164,-0.59207,-0.77249,-0.046912,-0.34052,-0.48794,0.58879,-0.28698,-0.56552
-0.68621,0.49539,0.30381,-0.43651,0.42139,0.85613,-0.79771,-0.17112,-0.011471,0.56985,-0.43231,-0.92024,-0.04255,0.88002,0.29345,0.78267,0.45154,-0.82529,0.092156,-0.22039,0.96083,-0.63804,0.33344,-0.94453,-0.66209,0.30999,-0.86012,-0.39013,-0.37967,-0.81842
0.2465,0.49193,0.47606,-0.9113,0.1781,0.18749,0.91072,-0.64909,0.14059,0.046086,0.14033,0.61981,-0.60941,0.75383,0.84274,-0.85411,0.21766,-0.81684,0.76511,-0.66776,-0.91788,0.88637,-0.20388,-0.56229,-0.098393,-0.24593,-0.77566,-0.2335,0.10724,0.83099
0.85202,0.19357,-0.65249,-0.18871,-0.14116,0.66897,0.021404,-0.20565,0.23551,0.59416,0.22917,-0.60227,-0.28516,0.49675,0.97077,0.73295,0.1265,-0.21855,0.41497,0.89527,0.76819,-0.99631,-0.11343,0.26363,0.045406,0.38754,0.52354,0.47577,0.15474,0.30591
0.16093,-0.68599,0.49579,-0.27796,0.30697,-0.9255,0.25725,-0.20583,0.58124,0.055476,-0.032658,0.58456,0.79583,0.93882,-0.25661,0.74261,-0.98373,0.8783,0.34743,-0.032944,-0.018237,-0.51528,0.70943,0.018261,-0.73045,0.61839,0.77337,-0.61405,0.30824,-0.85495
-0.85783,0.22127,-0.74948,0.5291,0.4594,0.0038164,-0.41555,0.11425,0.73294,0.43192,0.16167,0.17622,-0.54399,0.10049,0.71767,0.35505,-0.7197,0.78333,0.93457,-0.4358,-0.88943,-0.50819,0.67051,-0.86827,0.99066,-0.017631,0.7141,-0.69618,-0.36517,-0.73735
-0.21396,0.79885,-0.95041,-0.6136,-0.31812,0.36281,-0.57007,-0.057,-0.42747,0.71666,-0.86017,-0.87264,0.70714,-0.32916,-0.67713,-0.17668,0.41562,0.51127,0.70594,0.6659,-0.53546,0.050862,-0.050095,-0.77217,0.99449,-0.32839,-0.21093,-0.1491,0.11411,-0.81038
-0.25209,0.090174,0.48621,0.42286,0.034984,-0.49304,0.14879,0.44558,0.96957,-0.75717,-0.59195,-0.57284,-0.96147,0.17331,-0.92716,0.42109,-0.48605,-0.085866,0.045233,-0.18786,-0.73048,0.93749,-0.5193,0.65986,0.18941,-0.72799,0.77995,0.17196,0.57217,0.89585
0.44989,-0.079507,0.6585,0.4922,0.86693,0.61213,0.14585,-0.73178,-0.45516,-0.96988,-0.71963,0.32021,-0.31799,-0.0088742,0.18136,0.52288,0.44645,-0.71837,-0.074245,0.15391,-0.41379,0.282,-0.84095,0.70562,-0.1011,0.34744,-0.059322,0.070509,0.052702,0.95987
-0.35467,0.58332,0.17884,0.97447,-0.35501,-0.29758,-0.22868,-0.88436,-0.97924,0.96208,0.854,-0.62919,0.075084,-0.57238,0.64046,0.97465,0.11884,-0.22391,0.22919,0.21877,-0.1252,0.10309,-0.21124,0.59973,0.86138,-0.18586,-0.38208,0.91205,0.076661,-0.98922
0.24937,0.03604,-0.12198,0.40729,-0.98519,-0.62342,-0.99477,0.056156,-0.58235,0.075618,0.1151,-0.47525,-0.43572,0.024508,-0.50426,0.16853,-0.3293,0.67177,0.82181,0.83068,0.54016,-0.78296,0.93388,-0.95001,-0.95283,0.016467,-0.73705,-0.14302,-0.98548,0.19918
-0.39197,-0.54706,-0.72843,-0.59196,0.71342,0.76803,-0.23224,0.94618,0.63809,-0.40624,0.0703,-0.18342,0.21476,-0.36102,-0.013034,0.17599,-0.19415,-0.7159,0.94152,0.29575,0.88816,0.38777,0.86236,0.96045,-0.16285,-0.53736,0.071432,-0.61159,0.89169,0.91143
-0.85988,0.15336,0.20434,-0.87038,-0.51677,0.30489,-0.22674,0.2937,-0.409,-0.1058,-0.58324,0.27058,-0.96182,0.67969,-0.93275,0.24869,0.62797,0.15866,0.63014,0.41875,-0.17133,0.78653,-0.73404,-0.13238,-0.17317,-0.095212,-0.45308,0.78364,-0.67302,-0.84674
0.11453,-0.79468,0.23131,0.053835,-0.7813,0.5828,-0.13,0.52054,-0.76995,-0.181,0.84219,-0.2461,-0.92897,-0.8501,0.83674,0.23714,-0.29108,0.29094,0.92678,-0.5068,-0.76634,-0.45467,-0.53026,0.66966,-0.33317,0.7498,-0.26144,0.43817,-0.37436,-0.98587
0.36489,0.21027,-0.2155,0.38916,0.091229,-0.84459,-0.2951,-0.88646,0.13252,0.27187,-0.87361,-0.87734,-0.79442,0.32664,0.72195,-0.61221,-0.093955,0.43645,0.52283,0.35059,0.29472,0.050858,-0.51353,-0.9266,0.97654,-0.47864,-0.87958,-0.47149,0.79644,0.3777
0.68924,-0.5082,-0.21196,0.17502,-0.20776,0.37868,-0.81391,0.81911,-0.30623,0.46587,0.85635,-0.3958,-0.12854,-0.015041,0.36891,0.57927,0.41393,0.060261,-0.48439,0.12851,0.65707,-0.23184,0.12316,-0.15268,0.66033,-0.244,-0.52364,0.67339,-0.23729,-0.67823
-0.19988,0.12224,0.87647,0.16164,0.031508,-0.712,-0.5118,0.72444,0.13416,0.21611,-0.34965,0.89749,-0.20558,0.055963,0.14042,0.066291,0.93401,0.012004,0.28389,0.36562,0.49373,0.16029,0.1744,0.87123,-0.068643,0.60781,0.53189,-0.55857,0.72376,0.51881
-0.1589,0.7368,-0.27192,-0.8571,-0.59045,0.11308,0.68928,0.50328,-0.40885,-0.066442,0.81161,0.6706,0.54303,-0.041338,-0.56892,0.65947,0.58235,0.31506,0.75025,-0.10875,0.53921,-0.57124,-0.365,-0.66433,-0.61355,0.94986,0.74931,0.55076,-0.4336,-0.58678
-0.84552,0.71936,0.36215,0.89652,-0.56073,-0.4001,-0.43678,-0.15132,-0.18757,0.51083,-0.41842,0.91102,-0.32082,0.54536,-0.10212,0.016539,-0.099275,0.52305,0.45627,0.34735,0.81438,0.27596,-0.7559,0.18187,0.40806,0.10218,0.41475,-0.3998,-0.46219,0.12714
0.63895,-0.64194,0.020372,0.71374,-0.023481,0.13296,-0.67981,-0.15047,-0.28148,0.74712,-0.81722,-0.61544,0.31855,0.70966,-0.1349,0.82633,0.70457,0.30775,0.38642,-0.11938,-0.83682,0.000754,-0.54157,-0.85952,-0.83998,0.074939,-0.21127,-0.93247,0.88105,0.47679
-0.59347,-0.50253,0.19416,0.6629,0.48607,-0.68274,-0.82737,0.29493,-0.3154,0.012103,0.30937,0.79031,-0.12326,0.010536,-0.092567,0.39786,-0.26909,0.58157,0.90221,-0.39092,-0.10611,0.4432,0.68392,0.0025715,-0.064909,-0.90979,-0.97833,0.087872,0.70029,-0.89015
-0.87374,0.50502,0.49596,-0.30227,-0.22932,-0.94384,-0.64533,0.65184,0.58333,-0.72867,-0.76424,-0.65092,-0.81786,-0.64894,0.7888,-0.13117,0.99805,0.25206,0.13738,0.44198,0.093183,-0.32701,-0.43663,0.74167,-0.093588,-0.056362,-0.93835,0.076551,-0.22053,0.65857
0.10276,0.19741,0.19182,0.94285,0.0006528,-0.66763,-0.5904,-0.50341,-0.89941,0.043824,0.89901,0.20582,0.99026,0.28236,0.8003,-0.20805,-0.83243,0.89589,-0.037056,-0.28364,0.4917,0.11776,-0.7037,-0.89941,0.36869,0.77942,-0.58114,-0.46711,0.50922,0.32897
0.093646,-0.93088,0.17722,-0.60669,0.47383,-0.065271,0.17852,0.53533,-0.82333,0.77734,-0.33086,0.14627,-0.856,-0.99644,0.74791,0.68606,-0.17659,0.31793,-0.72775,0.63132,-0.22477,0.59856,0.15259,-0.42393,0.86428,0.5743,0.1465,0.37246,-0.5864,0.70263
0.75866,-0.11709,0.53012,-0.51573,-0.16875,-0.73088,0.49303,0.92774,-0.47571,-0.6018,0.082323,-0.65773,-0.73303,0.052898,-0.18357,0.84195,-0.26309,0.47876,-0.22484,0.78212,-0.91319,-0.47089,-0.85642,0.66191,-0.64442,0.68114,-0.092874,-0.17622,-0.13954,-0.55156
-0.87871,-0.42119,0.75242,-0.35719,-0.63448,0.81112,0.25841,-0.50506,0.80272,0.20059,-0.33516,0.60114,-0.060112,-0.46295,-0.73283,-0.44475,-0.23469,-0.95333,-0.58942,0.47973,-0.90651,-0.038386,0.94475,0.52608,-0.96513,0.69622,0.45345,-0.52694,0.93218,0.080582
0.26286,-0.78784,0.94149,-0.79785,0.9713,0.42997,0.14464,0.040664,-0.20446,-0.54201,0.94784,-0.62232,0.034094,0.021831,-0.50325,-0.37952,0.13913,0.7303,0.69794,-0.94953,0.3251,0.77458,-0.23731,-0.30412,-0.15935,-0.16221,0.3127,0.17487,0.62535,0.63612
0.10312,-0.073971,-0.64485,0.44984,0.34797,0.63922,-0.54639,0.8915,-0.29123,0.1147,0.43217,-0.96308,0.51418,-0.13289,-0.46583,-0.79581,0.58652,-0.6752,0.45161,-0.14784,0.84629,0.85904,0.3644,-0.85066,-0.98936,-0.75739,0.14825,-0.48202,0.39337,0.73741
0.64487,-0.023264,-0.37864,0.99011,0.90735,0.55687,0.065737,0.77745,0.51943,-0.89033,-0.048039,0.79495,-0.302,0.70856,-0.45348,0.12354,-0.95387,-0.0077766,-0.49236,-0.28071,-0.38517,0.88653,0.82952,-0.39289,0.52686,0.74933,0.70092,0.16164,-0.69857,0.68384
0.91567,-0.23151,-0.39849,-0.73288,-0.53117,-0.74542,-0.006672,-0.58665,-0.037483,0.022712,0.31759,0.61898,0.30383,-0.49138,0.060727,0.31944,-0.32526,-0.61407,-0.85769,0.73652,0.77996,-0.16934,0.77217,-0.38314,0.32222,0.14559,0.81154,-0.22786,0.73126,-0.16765
0.9374,-0.44579,0.60961,-0.59874,-0.76145,-0.71279,-0.21422,0.2997,-0.9767,-0.84054,0.89693,-0.51389,0.89406,-0.69696,-0.21503,0.2045,0.9217,-0.92139,-0.31558,0.083757,0.98291,-0.72844,0.33382,0.67673,-0.8041,0.57105,-0.031336,-0.67143,0.45134,0.16548
-0.97634,-0.12294,0.070356,-0.12008,0.36533,-0.5505,0.39591,0.092406,-0.94522,-0.1842,0.82438,-0.92321,-0.22854,0.38949,-0.74056,0.86668,-0.014824,0.00012951,0.45736,0.37541,-0.69856,0.16777,0.23042,0.044809,0.84647,-0.14562,0.54316,-0.98198,0.16394,-0.18308
-0.98145,0.65403,0.5841,0.35034,-0.41744,0.21914,0.41335,0.5383,0.29871,0.14775,-0.083305,0.84301,0.61994,0.47746,-0.064375,0.14947,-0.9716,0.33666,-0.68664,-0.11558,0.1135,-0.1265,-0.67258,0.49205,-0.095432,-0.017809,0.087938,0.26996,-0.75405,0.21032
0.99995,-0.65765,-0.53487,-0.47955,0.98581,-0.32703,0.64541,0.55411,0.65604,0.92881,0.34073,0.85041,0.83494,0.51214,-0.69607,0.092131,-0.21437,0.99511,0.42858,-0.4721,0.69762,-0.44577,-0.22419,-0.99266,0.86189,0.71496,-0.82837,0.045094,0.40797,0.65473
0.83113,-0.15495,0.47562,-0.67049,0.47188,-0.52832,0.053857,0.048861,-0.25509,-0.53591,-0.94747,0.64043,-0.92115,0.18139,-0.39294,0.24054,-0.28271,-0.52954,0.37738,0.46413,0.96219,-0.89294,-0.14978,-0.54716,-0.030099,-0.99577,0.89061,0.46221,0.4774,-0.89577
-0.40969,-0.68967,0.49065,0.95484,-0.11831,-0.82354,0.4056,-0.0094486,-0.94788,-0.91238,0.50465,0.41099,-0.89139,0.31558,0.57168,0.9255,-0.0015544,-0.33579,-0.56248,-0.5954,-0.77169,0.5231,0.91534,-0.42478,0.61371,-0.82057,0.67885,0.26204,-0.26227,-0.23261
-0.52739,-0.18215,-0.90857,-0.1063,-0.73544,0.68186,0.3026,-0.11529,-0.71849,-0.61448,-0.021687,0.21115,0.81521,0.63578,-0.083234,-0.065627,0.4554,-0.20252,0.8473,-0.52451,-0.66067,-0.49819,0.71304,0.80048,0.39008,0.84939,0.43884,-0.063574,-0.073433,0.45183
-0.74923,0.29268,0.57277,-0.42656,0.25826,0.58716,0.87226,0.12874,-0.88517,0.8236,0.47363,-0.64017,0.98704,-0.34728,-0.17718,0.040864,-0.15696,0.94279,-0.31717,-0.36664,-0.44083,-0.29878,-0.71511,0.94376,0.6464,0.62061,0.05894,0.39384,0.12457,0.043905
0.27234,-0.22592,0.96618,-0.13546,0.52928,-0.82184,-0.49062,0.054655,-0.90956,0.58049,0.40168,0.44041,0.40484,-0.7796,-0.1951,0.73835,0.87375,0.67121,0.062425,-0.81228,-0.21082,0.028974,-0.17555,-0.18273,0.24014,-0.35505,-0.94566,0.63452,0.26568,-0.76928
0.46993,0.26815,0.31494,-0.45027,-0.57833,-0.28917,0.10336,-0.13158,-0.75741,0.22611,0.30162,0.423,-0.7193,-0.76794,-0.91763,-0.14582,0.32316,-0.41252,-0.6734,0.30749,-0.87278,0.31675,-0.4865,-0.95082,-0.053102,0.78755,0.3523,0.36693,-0.44072,-0.19832
0.58943,0.94181,0.1032,-0.63728,0.53085,0.35954,0.46539,0.45784,0.16267,0.3125,0.78584,0.82317,0.027916,0.18421,-0.78324,0.0050565,-0.79675,-0.75197,0.59336,0.10973,0.90762,-0.77361,-0.94349,-0.45,0.33142,0.50985,0.36112,0.96303,-0.74254,0.13492
-0.68761,0.54732,0.32489,0.57568,0.64829,0.90989,-0.036677,0.41888,0.44247,-0.6106,-0.885,0.73102,0.12358,-0.31687,-0.6177,-0.54777,0.7759,-0.23184,0.89136,0.36,-0.71346,0.17303,0.89212,-0.84865,-0.24927,0.42166,-0.08437,-0.082063,0.55708,-0.3997
-0.54887,0.63704,0.14058,0.67588,0.79537,-0.94807,0.032841,-0.08309,0.60662,-0.87449,-0.084616,0.0014134,-0.38852,-0.82121,-0.38977,-0.04546,0.60955,-0.26846,0.080199,-0.52266,0.813,0.36433,-0.76256,-0.37432,0.95785,0.56693,0.66026,0.77486,0.94043,-0.51848
-0.025486,0.90982,-0.65104,0.66611,-0.70235,0.23933,0.96057,0.6739,-0.66014,0.23248,0.12742,-0.38121,0.060181,-0.72846,-0.528,-0.57372,0.382,-0.73606,-0.059427,0.87348,-0.4418,-0.90579,-0.17601,0.35416,-0.39486,0.47861,0.80625,-0.46764,0.057279,0.76355
-0.98592,-0.189,-0.95125,-0.36568,-0.81335,0.53148,0.58409,0.97759,0.49645,-0.40616,-0.06856,-0.38587,-0.69294,0.11101,-0.019302,-0.99457,0.75842,-0.97523,-0.40629,0.4006,0.060169,0.49104,0.99789,-0.53533,-0.92146,-0.058357,0.77156,-0.11884,0.79547,-0.28776
0.70613,-0.49383,-0.48199,0.13136,-0.40269,-0.066252,0.78923,-0.89596,-0.9849,-0.60317,0.85153,0.86212,-0.82811,-0.98678,0.024223,-0.705,0.44463,-0.8151,0.21775,-0.15722,0.55918,-0.80506,0.077729,0.40099,0.19197,0.32493,0.34788,0.48595,0.49739,-0.13615
0.37302,0.59021,0.96324,-0.46147,0.55402,-0.38365,0.53804,0.34961,0.21609,0.94482,0.30928,-0.30472,0.53237,0.71386,-0.585,0.62893,0.11723,0.098056,0.42737,-0.98259,-0.8859,-0.97949,0.45463,0.58423,-0.98895,0.62612,-0.24009,0.025311,0.90957,-0.70548
0.2644,0.51782,0.5147,0.92995,-0.95185,0.47227,0.6645,0.2959,0.007307,0.87193,-0.32516,-0.095828,0.83171,0.27996,0.14426,0.3357,-0.85211,-0.92048,-0.30395,0.60788,0.6577,0.1263,-0.48412,0.82093,0.49186,-0.24605,0.82719,0.83794,0.91304,0.57429
-0.1003,0.40758,0.87053,0.2239,-0.42605,0.067875,0.17653,-0.48383,-0.64571,-0.84285,-0.74124,-0.40315,-0.69842,0.40258,0.50919,-0.97902,0.31233,0.40497,-0.55297,-0.31833,0.028617,-0.81983,0.21593,0.81346,-0.37295,0.56907,-0.614,-0.64533,0.77719,-0.20182
0.81469,0.62554,-0.063052,-0.91767,-0.3544,-0.68668,-0.16513,-0.12677,0.83035,0.9294,0.57135,-0.14376,0.44498,-0.40942,-0.66765,-0.2588,-0.95882,-0.95097,0.29681,-0.71371,-0.30362,0.89956,0.48063,0.42812,0.91181,0.80036,0.51905,0.73028,0.984,0.93836
0.48661,-0.51697,0.60107,-0.50583,-0.95764,0.50035,-0.95362,0.97992,-0.28044,-0.58953,0.7628,-0.49929,-0.99448,0.099925,-0.6213,0.2258,-0.86592,-0.51029,-0.57823,0.23767,0.88626,-0.48929,-0.86912,-0.95335,-0.89281,-0.39962,0.39659,-0.27363,-0.41093,-0.21231
-0.71498,-0.88715,0.3941,0.19253,0.72223,-0.87515,0.098641,-0.31339,0.86558,-0.39571,-0.84225,0.96979,-0.44029,-0.53024,0.63368,0.80153,0.82857,-0.28432,0.951,-0.5675,-0.019019,0.2347,-0.9922,0.75346,-0.57406,-0.31371,0.56401,-0.79326,-0.41105,0.69792
-0.57464,0.83529,-0.54065,-0.022104,0.91696,-0.77422,0.91996,-0.81575,0.25098,0.32947,0.029823,0.49286,-0.94299,-0.9114,-0.47121,0.084798,0.63952,-0.49918,-0.74263,-0.1205,-0.54429,0.99643,-0.184,0.66325,0.64975,-0.36668,0.57538,-0.8537,0.89766,-0.57075
0.8023,-0.77716,0.66896,0.029072,0.85781,-0.45786,-0.70479,0.28714,0.99964,-0.21336,0.53643,-0.42062,0.22872,-0.80262,-0.86864,-0.9821,-0.24831,-0.65124,-0.12869,0.90111,-0.49172,0.087294,-0.14574,-0.31173,-0.77434,-0.3212,-0.09678,-0.80127,0.76194,0.70985
-0.64716,0.5282,0.58938,0.49117,0.90774,0.74213,-0.19171,0.24873,-0.92201,0.29677,0.4965,-0.13747,-0.38382,-0.79975,-0.28978,-0.98792,-0.46701,0.67908,0.54302,0.15552,0.87295,-0.42417,-0.028527,0.61048,-0.87111,-0.83811,-0.45405,0.44236,-0.42247,-0.32522
0.34484,0.93223,-0.77226,0.82946,0.29845,0.78569,0.72466,-0.11912,0.96725,-0.47747,0.11194,0.99217,-0.011976,0.53591,0.0028112,0.55986,0.093944,-0.25575,-0.069059,0.70694,0.50675,-0.85027,-0.48327,-0.44791,-0.63636,-0.066864,0.84434,0.5128,-0.63786,-0.86064
0.98515,0.82304,0.41983,-0.74903,0.81815,-0.33633,-0.033269,0.037904,0.25213,-0.39025,-0.63446,-0.73244,-0.60325,-0.20679,0.81336,-0.0027105,-0.53107,-0.70717,-0.91654,0.02279,0.38845,-0.26199,0.17995,0.71505,-0.64113,0.1782,-0.85741,-0.66588,-0.030307,-0.89728
-0.18939,0.40846,-0.8098,0.06014,-0.61558,-0.89481,-0.54768,0.12277,0.97794,0.31004,0.79389,-0.16562,0.94073,-0.65092,-0.56898,0.78388,0.93998,0.6987,-0.83578,-0.11446,0.62851,-0.72083,-0.47602,0.13852,-0.5521,-0.51754,-0.21913,-0.15263,0.34104,0.55722
0.52899,0.85428,-0.83308,0.72094,0.92834,0.3602,-0.95744,0.13849,0.27367,0.56421,0.41948,0.23748,0.94123,-0.2472,-0.7195,0.29871,0.088297,0.061605,0.39587,-0.66216,0.38751,-0.744,0.44585,-0.60823,-0.21177,0.84646,-0.72233,0.69937,0.35152,0.3132
0.90632,-0.70717,-0.34293,0.68764,-0.5114,0.38084,-0.61605,0.33997,0.75321,-0.039036,0.30922,0.74897,-0.99522,0.76889,0.7425,-0.59015,-0.035634,-0.61049,-0.40008,0.2048,0.37415,0.87708,-0.10765,-0.94491,0.79096,-0.57643,-0.89516,-0.24415,0.25839,-0.96832
-0.71717,-0.68473,0.17693,0.41621,-0.50912,0.77676,0.51111,0.54418,-0.25384,-0.86354,0.88054,-0.034098,-0.77458,-0.13289,0.31395,-0.77643,-0.95215,-0.79982,0.17119,-0.84926,0.10101,-0.1085,-0.24395,-0.16257,0.20789,-0.091465,0.30248,0.95993,-0.19896,-0.66827
-0.45641,0.80805,0.92794,0.61461,-0.51456,-0.17219,-0.48153,-0.93019,0.27216,0.33327,0.20672,0.85024,-0.80708,0.23202,0.25088,0.62172,0.33862,0.91832,-0.2817,0.46042,0.72316,0.40233,-0.18189,0.064763,0.92088,0.88405,-0.43608,0.95036,0.047436,0.65074
0.98769,-0.098357,0.93227,-0.46167,0.27627,0.02452,-0.32134,-0.6648,-0.91392,-0.16109,-0.54173,0.0074008,0.66495,-0.35849,-0.93836,0.21057,0.96995,0.4311,0.88996,-0.77739,-0.33363,-0.43918,-0.66351,-0.99592,-0.021516,0.44315,-0.39756,-0.81693,-0.3136,-0.12037
0.87532,-0.067135,0.6138,-0.48625,0.94432,0.70435,0.73849,0.83583,-0.31038,-0.0010039,-0.68459,-0.44953,-0.30749,0.085926,-0.94378,0.4426,0.65358,-0.67207,-0.20507,-0.026287,0.88418,0.65415,0.0077854,0.64239,0.72948,0.44096,0.46196,0.070488,0.8021,0.94191
-0.31542,-0.61739,-0.23151,-0.36789,-0.52824,-0.073171,0.85865,-0.52863,-0.076368,0.62702,0.75275,-0.67179,-0.5289,-0.28416,0.54206,0.8902,0.57467,0.12171,0.51453,-0.22056,0.093158,0.76167,0.4355,0.46048,-0.68631,0.28576,0.85056,0.62211,-0.57457,-0.43165
-0.1544,-0.69033,-0.43899,-0.085485,0.05785,-0.32431,0.3413,0.34494,-0.65982,0.76368,-0.14557,-0.44554,-0.48905,0.63672,-0.089177,-0.67371,-0.74212,0.2824,0.96612,0.6376,0.91783,0.7054,-0.57275,0.23516,0.68616,0.67642,-0.23118,0.85941,-0.45095,-0.77122
-0.77662,0.86765,0.64827,-0.35763,0.39347,0.098048,0.24552,-0.36596,0.53288,0.3927,0.65185,0.79152,0.97672,0.22145,-0.12174,0.62794,0.99399,0.15127,-0.77466,0.12313,-0.70528,0.21113,-0.86479,0.97948,0.18474,-0.22034,0.4567,-0.49091,-0.89509,0.3587
0.46332,0.42885,0.27568,-0.23218,0.83531,0.166,0.88711,0.24746,-0.20932,-0.98867,0.96071,-0.2739,0.38182,0.46666,-0.28901,0.29639,-0.17131,0.14825,0.75008,-0.591,0.56184,-0.84907,-0.86181,0.33384,-0.22964,0.85529,-0.25917,-0.20442,-0.32162,0.45818
0.86837,-0.24158,0.29055,0.20655,-0.27813,0.046299,0.18424,0.71374,-0.93205,0.92202,-0.63717,-0.083119,-0.63637,0.40499,-0.51367,0.059159,0.91939,0.20963,-0.22544,-0.1912,-0.90985,-0.9894,-0.81102,0.059564,0.42224,0.98644,-0.56802,-0.097464,0.15028,-0.046688
0.46873,0.3769,0.63596,0.97618,-0.76944,-0.736,0.91158,-0.19891,-0.47947,0.31737,0.030596,-0.34719,0.91139,0.65545,-0.13745,-0.4564,-0.61831,-0.80298,0.96451,-0.87224,-0.40935,-0.51861,0.51072,0.6652,-0.71625,-0.71907,-0.01462,0.47004,-0.58448,-0.45793
-0.49992,0.31769,-0.59412,-0.88544,-0.73414,-0.98482,0.2229,0.080183,0.93525,0.59024,0.67361,-0.16432,0.9753,-0.86491,0.38139,0.21794,0.49509,0.28191,0.66345,0.56588,0.78954,0.64992,0.60442,0.019148,-0.54285,0.083011,0.8942,-0.54336,-0.23064,0.13073
-0.38981,-0.039483,0.13472,0.72661,-0.083224,-0.25862,-0.25173,0.86601,-0.75422,-0.14904,-0.25558,0.76327,-0.31429,0.097436,-0.65743,-0.78427,0.8806,-0.43382,0.93175,-0.37685,-0.92679,0.70321,0.22742,0.82486,-0.74265,0.090479,-0.27133,0.60687,0.98106,-0.57819
-0.2873,-0.14173,0.64366,-0.24533,-0.25509,-0.17675,-0.32404,-0.40473,0.47642,-0.48354,0.92247,0.95842,0.059091,0.89408,0.1692,0.30231,-0.35576,-0.51575,-0.5389,0.40466,0.8957,-0.53565,-0.83781,0.95383,0.61951,0.1805,-0.37206,0.37641,0.040106,-0.00080997
-0.0099385,-0.97065,0.34484,-0.87532,-0.53251,0.9645,0.38586,-0.4666,0.76995,-0.82747,-0.34906,0.74742,-0.094796,0.50457,0.27799,-0.12369,-0.99786,-0.46757,-0.96504,0.83015,-0.66263,0.02212,-0.67543,-0.78666,-0.15638,0.92972,-0.41193,0.55613,-0.98972,0.47067
0.17247,-0.53156,-0.38228,-0.76632,0.42043,-0.99281,0.40547,0.6624,0.56431,0.048622,0.45549,-0.9618,-0.31808,0.22009,0.31136,0.49462,0.48038,0.19017,-0.75477,0.40744,-0.0037182,0.47936,0.0077186,-0.77229,0.55627,-0.5307,0.60871,0.25833,0.22373,0.051297
0.24487,-0.05664,-0.44568,-0.92128,0.89716,-0.26813,-0.81109,0.75376,-0.64544,0.33447,-0.97265,0.73647,0.49547,0.8707,-0.061612,-0.188,-0.12978,0.43717,0.70999,0.2483,-0.42251,-0.84225,0.17836,-0.0059127,0.85015,-0.60733,-0.4385,-0.64576,0.83087,0.11467
-0.86535,0.70501,0.88217,0.79792,0.4039,-0.69189,-0.29164,0.41345,0.2309,-0.45214,0.067225,0.46811,-0.77712,0.99705,0.36508,0.024064,0.47249,0.51584,0.55414,-0.3491,0.79766,-0.084603,0.66813,0.92389,0.56613,-0.32651,-0.10253,0.19062,-0.57627,-0.618
0.76911,-0.95498,0.13535,-0.97912,-0.92454,-0.91313,-0.28776,0.45265,0.51412,0.90085,-0.80362,0.48373,-0.43448,-0.026377,-0.57436,0.95312,0.13848,-0.1819,-0.54401,0.86863,-0.95349,0.46147,0.075432,0.21227,0.12119,-0.95576,0.45815,-0.8724,0.79526,0.76611
-0.43349,-0.9081,-0.21344,0.85427,0.94707,-0.82614,-0.29361,0.27091,-0.70865,-0.88321,-0.57214,0.93359,-0.042855,-0.097696,0.30462,0.5515,-0.95699,0.70323,-0.80606,-0.60041,-0.34035,-0.41136,-0.0040552,-0.33924,-0.13448,-0.54891,0.1682,-0.29486,0.55364,0.62763
-0.96775,-0.4304,0.30329,-0.41991,-0.32473,-0.43287,0.94381,0.28787,-0.61439,-0.23543,0.058396,0.33522,0.11084,0.17328,-0.79421,-0.85819,-0.89868,-0.35098,0.93955,-0.50838,-0.075932,-0.51292,-0.97382,-0.4824,0.30721,-0.19388,0.52385,0.98743,0.44074,-0.61404
0.51112,-0.60976,-0.74956,0.54571,0.42897,-0.74149,0.59086,-0.28373,0.13153,0.0044394,-0.53611,0.29945,-0.19087,0.50499,0.1138,0.20788,-0.74424,-0.37302,0.37196,-0.3021,0.51948,-0.41684,0.036258,0.90526,-0.064864,-0.99471,0.6257,0.57001,-0.68945,-0.42946
-0.42144,0.93954,-0.076197,-0.39146,0.88638,-0.27938,0.70019,-0.26065,0.26354,-0.6205,0.66276,-0.92989,-0.12829,0.77524,-0.12101,0.28105,0.10522,0.99416,0.11248,0.023418,-0.63432,-0.92823,-0.47127,-0.48521,0.69986,0.88368,-0.59092,-0.3618,0.076238,0.7409
0.22504,-0.82677,-0.035132,0.75905,-0.48006,0.81785,-0.18614,-0.90425,-0.15917,0.40296,0.29634,-0.33026,0.53002,0.62658,-0.99283,0.2936,-0.37238,0.94052,0.57441,0.76664,0.70755,-0.38315,-0.66198,-0.10225,-0.8519,0.38275,0.20451,0.5069,-0.48438,0.4779
-0.63412,0.55316,-0.24384,-0.5007,0.58438,0.26985,-0.53108,-0.967,-0.53998,-0.31047,0.70155,0.736,-0.48511,0.89183,-0.43355,-0.70062,0.25551,0.053181,-0.34151,-0.80493,0.82434,-0.55725,-0.2263,-0.082999,-0.73814,0.22974,0.1393,0.67302,-0.059423,0.22245
-0.5887,0.90119,-0.15637,-0.40089,0.69977,-0.56338,-0.45858,0.11266,-0.40982,0.93378,0.15749,-0.18434,0.5362,0.3087,-0.86626,-0.62935,0.65942,-0.10993,-0.67535,0.99018,-0.74539,0.98113,-0.86561,-0.96506,0.55189,-0.65463,-0.69789,-0.88951,0.02199,0.9543
-0.23981,0.84726,-0.33011,-0.52088,-0.016772,0.50837,-0.98809,-0.095027,-0.18409,-0.060627,0.49521,-0.97036,0.65225,0.04258,0.93248,-0.58048,0.51379,0.058165,0.15442,0.87121,-0.047132,-0.7353,0.3653,-0.20745,0.7993,0.13132,0.51148,0.30868,-0.16962,0.024933
-0.60467,0.81152,0.73525,-0.11222,0.58595,-0.52929,-0.012522,0.40973,0.23035,-0.61024,0.7783,0.26057,0.39438,-0.4118,0.46955,0.28536,-0.4787,-0.77035,-0.47293,-0.44373,-0.595,0.59041,0.13606,0.35725,0.4854,0.37711,-0.5832,-0.81142,0.0096701,0.37307
-0.12055,-0.72343,0.37286,-0.56539,-0.85327,-0.29051,0.17955,0.35594,-0.21288,-0.682,0.32955,-0.48265,0.83043,-0.13688,-0.41677,0.88265,0.73508,0.29358,-0.52482,0.60553,-0.0033975,0.36237,-0.32569,-0.061056,-0.90352,0.38471,0.21299,-0.49893,-0.60427,-0.69299
0.55691,-0.89768,0.75152,-0.060985,0.85949,-0.50664,0.677,-0.49046,0.67501,-0.759,-0.46716,-0.049197,-0.063826,0.41465,-0.28825,-0.070491,0.49497,-0.57868,-0.30553,0.51633,0.94495,-0.36304,-0.42213,-0.73781,-0.29118,-0.68105,0.1299,0.63107,-0.02421,-0.37578
0.87526,-0.91561,0.63894,0.056979,0.57649,-0.22316,0.87137,-0.014184,0.063198,-0.64387,-0.37612,-0.081349,0.36896,-0.91559,0.22669,0.094106,0.79251,-0.10332,-0.040213,-0.357,-0.75114,0.8346,0.096984,-0.70021,-0.077941,0.82149,0.8197,-0.20146,-0.19041,-0.67094
-0.00066555,-0.73845,-0.84047,-0.77408,0.078631,0.77189,0.79115,-0.67624,0.55279,-0.18396,0.10631,-0.70099,0.40493,-0.9741,0.40476,-0.32869,0.65938,-0.97875,0.92539,-0.22823,-0.00047618,-0.17257,0.51459,0.64794,-0.91547,0.013029,-0.74806,0.5348,0.076814,-0.95003
0.25918,0.069893,0.81684,-0.6126,0.77997,0.88277,-0.51964,0.91075,-0.34677,-0.26657,0.60474,0.060441,0.85695,0.97761,0.15239,0.20962,-0.49364,-0.78155,-0.18055,-0.43576,-0.41603,0.86637,-0.82569,0.86794,0.13684,-0.75045,0.13669,0.71266,-0.097064,-0.79956
-0.075811,-0.095828,-0.68746,-0.71229,-0.32456,-0.7261,-0.23278,-0.59373,0.28347,-0.38729,0.47971,0.16755,-0.65203,-0.10557,0.64118,-0.2962,0.1764,-0.12336,-0.76207,-0.46978,0.27756,-0.85133,0.34705,-0.23113,-0.63928,-0.15692,-0.95615,-0.91676,0.57355,-0.73309
-0.66422,-0.023643,0.62339,0.56883,0.66747,-0.89614,0.90757,-0.67462,0.84325,0.41005,-0.88986,-0.25559,0.93858,0.2061,-0.67903,-0.93369,-0.23649,-0.3413,-0.98153,0.50712,0.70082,-0.22017,-0.92507,0.1806,0.86825,-0.15352,0.62655,0.98727,-0.39486,-0.8608
-0.074913,0.4952,0.35056,0.65951,0.87088,-0.91566,-0.40104,-0.50071,-0.66721,0.33268,0.70385,-0.15519,0.56517,-0.3724,0.76369,0.75594,0.14023,0.10488,-0.13864,-0.13045,-0.2847,-0.016316,0.88739,-0.62578,0.18585,-0.65178,-0.36321,0.50451,0.33863,0.11263
0.48748,-0.74542,-0.35581,-0.025864,0.094449,-0.55114,-0.027851,0.3876,-0.29887,0.10322,0.92773,0.38391,-0.15235,0.98302,-0.93096,0.32095,-0.20006,0.49984,0.97511,0.038005,-0.28283,-0.092815,-0.91442,-0.23366,-0.44174,0.32387,-0.28378,0.02946,-0.6663,0.29019
-0.9966,-0.41334,0.24769,0.6135,-0.26989,0.91365,0.89571,0.97304,0.33863,0.84395,0.085992,0.56726,-0.30997,-0.19113,0.36667,-0.5388,0.12437,0.61355,-0.48923,-0.43114,0.17813,-0.020846,0.66058,-0.6393,0.47294,-0.044145,-0.74345,-0.56639,-0.40324,-0.77683
0.54064,0.39383,0.45005,-0.36672,-0.53809,-0.12827,-0.65718,-0.020583,-0.72471,-0.36528,0.95939,-0.92822,0.13346,-0.20185,-0.30108,0.52472,0.020564,0.36763,0.75689,-0.21246,-0.5622,0.20814,0.071665,0.94118,-0.63419,-0.1693,0.99308,-0.80594,-0.64843,0.52315
0.63553,0.91039,-0.45638,-0.023795,-0.24377,0.50328,0.71174,0.70343,-0.22588,-0.053569,0.083161,0.33023,-0.39041,-0.41265,-0.81538,0.30081,-0.9003,-0.96566,0.063231,-0.7519,0.44302,0.60749,-0.32546,-0.43506,-0.4623,0.50371,0.78476,0.58909,-0.24822,-0.66818
0.21636,0.97597,0.44446,0.98347,0.51128,0.052943,0.094995,-0.054194,-0.15863,-0.66259,0.041223,0.75231,-0.32699,0.048575,-0.76697,0.4498,-0.4229,0.23681,0.51513,-0.76803,-0.28034,-0.91218,0.22477,-0.36749,-0.10929,0.29035,0.56883,0.4374,-0.76244,0.75636
-0.79174,0.87225,-0.20803,0.91387,0.83248,-0.40775,0.86817,-0.86322,-0.0868,0.33824,-0.05525,-0.83596,0.39439,0.5237,0.4414,0.15632,-0.75258,0.76877,0.35639,0.35657,-0.22072,-0.57335,0.7401,0.14356,0.79504,0.17224,-0.08045,0.18909,-0.27441,0.37306
-0.70965,0.99696,-0.36912,0.75877,-0.3795,-0.090695,-0.52038,-0.47988,-0.94199,0.94441,0.062029,-0.043248,-0.056661,-0.53102,-0.40027,0.32115,-0.45354,-0.77457,0.60176,-0.35878,0.18609,-0.01137,-0.90355,-0.1371,0.33274,-0.78573,0.61017,0.042846,0.75651,0.61568
-0.038395,-0.91637,0.26178,0.53006,0.51618,0.80793,0.45609,-0.71848,-0.4035,0.69389,0.9145,-0.40291,-0.38295,0.65269,-0.089561,0.2327,0.65567,-0.68997,-0.70656,-0.077514,-0.52887,-0.32167,-0.56271,-0.92083,-0.78937,-0.28483,-0.22051,0.44661,0.15333,0.27686
-0.14698,0.68979,0.43684,-0.069534,-0.42339,-0.10557,-0.56259,0.78135,-0.079986,-0.32582,0.7056,0.84404,-0.69724,0.016955,0.96717,0.51413,0.80272,-0.2577,-0.77089,-0.080902,-0.36584,0.12148,0.98806,-0.84283,-0.57692,-0.47434,-0.60172,-0.25228,0.19885,0.75892
-0.52765,-0.45313,0.063141,0.93964,0.82191,-0.80587,-0.50471,0.44103,0.77786,-0.31306,0.8719,0.17561,-0.58658,0.81359,0.96301,-0.099028,0.063822,-0.19604,-0.48372,0.3651,-0.16058,-0.69617,-0.18533,0.47373,-0.23936,-0.52344,-0.89855,0.86126,-0.45136,-0.89161
-0.94336,-0.15087,0.53971,-0.85691,-0.82518,0.95563,-0.12941,-0.43468,0.71855,0.11984,0.86292,0.91242,-0.73728,-0.75943,0.72312,-0.48215,-0.46839,0.52956,-0.56421,0.5976,0.98794,-0.2961,-0.49654,-0.046629,0.34497,0.89147,-0.066723,-0.39124,0.67103,-0.44579
-0.4372,-0.51611,0.90073,0.53347,-0.25927,0.74048,-0.7295,-0.24523,0.3656,0.95313,-0.072997,-0.8686,0.1046,0.20329,-0.49984,-0.60799,0.039009,-0.32976,-0.83393,-0.55203,-0.62879,-0.063345,-0.73065,-0.092455,0.088404,-0.43012,-0.84268,0.17783,-0.49908,-0.26369
0.48815,-0.63771,-0.048634,0.36774,-0.82428,-0.024691,-0.42342,0.71035,0.41765,-0.52765,0.99338,-0.74251,0.83632,0.736,-0.89858,0.99292,0.88787,0.4202,0.72101,-0.52191,-0.78535,-0.28519,-0.34802,-0.75892,-0.51441,-0.86041,-0.52304,0.22524,-0.55286,0.54648
0.48785,-0.45053,-0.55321,-0.87749,-0.79993,-0.3511,-0.74639,-0.02802,-0.81775,-0.10688,-0.89926,0.66699,-0.53997,0.056939,0.83103,0.048012,-0.32525,0.52615,-0.79995,-0.93843,-0.74798,-0.11659,-0.69708,0.85675,-0.54684,-0.65127,-0.90129,-0.1986,-0.80483,0.0057579
0.7771,-0.59466,0.56361,-0.12982,-0.92142,0.90437,0.99821,0.68877,0.29946,-0.041703,-0.54874,0.21764,0.94218,0.017682,0.00018621,-0.40221,0.75718,-0.77543,0.90321,-0.054997,0.79956,0.34118,-0.59366,0.95912,0.95368,0.2593,0.67503,-0.17102,-0.21598,-0.477
-0.59512,-0.52958,-0.44774,-0.40538,-0.2215,-0.056896,-0.50151,-0.084582,0.92265,0.14315,0.58158,0.40603,0.40465,0.23135,-0.17765,0.29696,0.41429,-0.7558,-0.46362,-0.39179,0.76475,-0.77281,0.73316,-0.59016,-0.69987,0.89976,-0.12329,-0.23851,-0.45652,0.15605
-0.074546,0.56117,-0.92596,0.18619,-0.23449,0.93888,-0.05175,-0.25587,0.72499,-0.10927,0.036029,0.79572,0.80794,-0.04409,0.06611,-0.85738,0.88272,0.71035,0.67809,0.8822,0.52717,-0.86653,0.53923,-0.84701,-0.41025,0.85389,0.47968,0.43269,-0.39352,-0.99134
-0.85028,0.40637,0.21995,0.319,-0.85168,0.48496,-0.44503,-0.76368,0.6386,-0.54207,-0.24203,0.027413,-0.28135,-0.56042,0.41782,0.83125,0.82997,0.1476,-0.50722,0.60485,-0.13476,0.3904,-0.0055728,-0.99679,-0.039657,-0.79761,0.44117,0.75455,-0.29355,-0.22696
-0.13723,0.95208,-0.56864,0.41357,-0.70183,-0.74745,0.39384,-0.56039,0.852,0.94825,0.31143,-0.71897,-0.99183,0.25244,0.59563,-0.13732,0.93584,0.87565,-0.45105,-0.26469,0.051091,0.78628,-0.94033,0.32481,-0.86999,0.88836,0.58831,-0.94437,-0.74038,-0.62081
-0.63766,0.84568,0.58636,0.42496,-0.50466,-0.77809,0.4539,-0.039008,-0.17327,0.81907,-0.066605,-0.076716,0.92852,0.40078,-0.518,-0.21365,-0.67552,-0.56181,-0.37388,-0.76558,0.55579,0.26968,-0.064992,0.9141,-0.2619,-0.46791,-0.066022,-0.41344,0.62606,-0.37098
0.43756,0.40175,0.98233,-0.92366,0.41873,0.32968,0.91685,-0.94592,-0.7947,-0.64251,0.65806,-0.5379,-0.51436,0.039713,-0.52131,-0.66653,0.67468,0.51344,-0.10926,-0.51148,-0.20314,-0.25644,-0.079962,0.31623,0.78516,0.37272,-0.34147,-0.83199,0.55875,0.89734
-0.23685,0.95115,0.12006,0.24094,-0.66861,-0.8588,0.19182,0.62076,0.5935,0.98492,-0.15832,0.23887,0.47359,0.08378,0.20272,0.7486,0.92233,0.19791,0.20941,0.53416,-0.11456,-0.029197,0.924,0.48457,-0.55959,0.50276,0.45295,-0.75406,-0.06484,-0.14805
-0.34683,-0.33787,0.012042,0.53019,-0.002152,0.021017,-0.0023575,0.47766,0.77763,-0.47597,0.16784,-0.84176,-0.25375,-0.60996,0.83546,-0.7613,0.49197,-0.045008,0.085648,0.48883,0.91848,0.06765,-0.69147,0.18324,-0.28021,0.69911,0.77612,0.50748,-0.57221,0.2943
0.91671,-0.21336,-0.15129,0.15157,0.59285,-0.39458,0.49439,-0.037774,-0.49301,0.25602,-0.13074,0.58113,-0.59708,0.79868,0.048084,0.033313,0.85122,0.91277,-0.73399,0.035856,-0.42836,0.088347,-0.77847,-0.87712,-0.81718,0.34753,-0.6902,-0.045085,0.98367,0.67291
-0.70633,0.2435,0.74862,0.22067,0.77458,0.65146,-0.67498,-0.89812,0.72089,0.59896,-0.53875,-0.54008,-0.61239,-0.88212,-0.53868,-0.40262,-0.99699,0.72699,-0.64669,-0.15114,0.51772,0.86639,-0.2317,-0.68875,0.3233,0.75087,-0.59548,0.91592,-0.62512,0.45508
-0.099538,-0.72247,0.057964,0.16446,0.29877,0.9874,-0.41498,-0.54467,0.68229,0.42969,0.60714,-0.48281,-0.026688,0.94723,-0.037603,-0.68165,0.55114,-0.84572,-0.73397,0.44514,0.81616,-0.90637,-0.20411,-0.42833,0.25679,-0.58606,-0.6717,-0.89309,-0.25043,-0.075071
-0.53376,0.73667,-0.62053,-0.26071,-0.28539,0.26245,-0.017914,-0.033567,-0.079325,0.39679,0.70389,0.35727,0.53448,-0.72344,-0.98671,0.52845,0.39276,-0.89262,-0.050106,-0.56643,-0.41724,0.52043,0.82605,0.85187,0.78416,-0.67971,0.28022,0.25598,0.35201,-0.72775
0.084651,-0.33497,-0.5995,-0.84525,0.42376,-0.82646,0.8695,0.60966,-0.81354,0.6988,0.45717,0.054802,0.48655,-0.81914,0.7757,-0.019443,-0.80925,-0.66944,0.61562,-0.58347,0.25884,-0.027415,-0.13319,0.25597,-0.29498,0.94147,-0.70886,0.7348,-0.50372,-0.044582
-0.20371,0.7686,0.53378,0.59381,-0.78018,-0.65222,-0.11394,0.53745,0.957,0.22457,0.22004,0.19694,0.68309,-0.029875,0.38686,0.57311,0.14645,-0.325,-0.44521,0.37103,-0.8698,-0.35332,0.017929,0.9294,-0.40102,0.27006,-0.82096,0.86374,0.86706,-0.84065
0.91744,-0.40943,0.91137,-0.072691,-0.75407,-0.28539,-0.39286,-0.92142,0.45165,0.86175,-0.7189,-0.48945,-0.51528,0.65194,-0.25904,0.38811,0.94123,-0.14532,0.24568,0.94747,-0.93973,-0.27272,0.13528,0.61789,-0.86209,-0.24653,0.37251,0.51886,0.43977,0.29062
-0.2705,0.90407,-0.14016,0.17887,0.53511,0.38287,0.63275,-0.80973,0.2552,0.18799,-0.80229,-0.32358,-0.83929,0.76685,-0.78668,-0.72679,0.60016,-0.37659,-0.092701,-0.11945,0.49539,0.44777,-0.66645,0.02785,-0.19905,-0.36639,0.018244,-0.60473,-0.35939,-0.58293
0.15504,-0.2834,-0.56809,-0.021375,-0.70757,0.078062,-0.46421,-0.0054969,-0.30112,-0.56041,0.1026,-0.34613,0.8484,-0.80047,0.72503,0.50498,-0.69158,0.90359,-0.46738,0.64016,0.10741,0.98968,-0.75745,0.6836,-0.43128,0.95252,0.82066,-0.9099,-0.027259,-0.7727
0.42872,0.078073,-0.29406,-0.97616,-0.82262,0.50233,-0.44441,0.38717,0.80296,0.62837,0.95543,-0.31344,0.34248,0.4344,0.51873,-0.053303,0.71177,-0.84823,-0.26018,0.051678,0.493,0.76391,-0.14853,0.16828,-0.3466,0.34548,0.96467,-0.87529,-0.027686,0.41202
-0.17707,0.22643,0.79868,-0.079023,-0.063653,-0.54115,-0.83897,-0.55298,0.0064559,-0.64379,-0.51635,-0.44773,-0.8244,0.429,0.16254,0.20825,0.78143,-0.78343,-0.7989,0.28747,-0.46292,0.23456,-0.045292,-0.11503,-0.1653,-0.66443,-0.43777,-0.9871,-0.29289,-0.85637
0.56195,0.60424,-0.93579,0.15874,-0.08434,0.40475,-0.87144,0.18591,-0.39883,-0.67221,0.25669,-0.68355,-0.86701,0.48713,-0.81983,-0.17608,-0.069888,-0.54387,0.13466,0.12669,-0.43315,0.016387,-0.21779,-0.13007,-0.098325,-0.53204,-0.64322,-0.77282,0.51979,-0.1483
-0.23395,0.39072,0.0050012,0.31325,0.101,0.79542,-0.69181,-0.30687,-0.75329,-0.1578,0.11582,0.19381,-0.40905,-0.46573,0.58119,0.1372,-0.94063,-0.73178,0.30111,-0.064396,-0.19575,-0.82112,0.66101,-0.71083,-0.96787,-0.026185,0.011717,-0.59063,-0.7427,0.92328
-0.86169,-0.61705,0.73617,0.31523,0.66207,-0.22266,-0.7279,0.24343,-0.67686,0.57977,0.96912,0.84043,0.11534,-0.29246,0.17471,0.021239,0.97694,-0.3375,0.69458,-0.61133,-0.0047754,0.58466,0.27667,0.73659,-0.99896,0.35188,0.94392,0.69353,-0.049328,-0.86275
0.088608,0.10221,-0.92433,0.29494,0.4308,-0.87196,0.36653,0.069715,-0.061238,0.47661,-0.73188,0.82725,0.9078,0.62129,0.46436,0.26788,-0.9995,-0.67958,-0.51015,0.55168,-0.91835,-0.06851,-0.19847,0.10602,0.00889,-0.12533,-0.63757,0.84753,-0.16841,0.22678
-0.14046,0.29817,0.6497,0.93799,0.64201,-0.40223,-0.8497,0.71476,-0.59685,-0.93652,0.32411,-0.21686,-0.93742,-0.31124,0.31946,-0.845,0.79114,-0.56343,-0.94713,0.28213,0.26084,-0.21355,0.13729,0.94471,-0.53383,-0.51921,-0.8284,0.30759,-0.0085294,-0.16393
-0.16768,0.24643,0.2905,-0.79271,0.47205,0.092049,-0.74607,-0.5848,0.42614,0.99514,0.14466,-0.58603,-0.16207,0.043731,-0.86363,-0.4052,-0.54066,-0.52878,0.2918,0.61911,0.34617,0.36412,0.9584,0.25,-0.92463,0.65709,-0.80808,-0.061529,-0.42221,-0.81675
0.97735,0.64265,-0.96625,-0.61044,0.83545,-0.19315,-0.33378,-0.48882,-0.80716,0.96537,0.86852,0.75262,-0.61942,-0.58546,0.63033,-0.84097,0.38005,-0.42617,0.69742,-0.27568,0.41223,0.11452,-0.51844,0.97229,0.98963,0.79573,0.2258,0.094666,0.75947,-0.75621
0.84192,-0.49449,-0.4528,0.72158,-0.51696,0.56248,-0.45852,0.016181,-0.69726,0.6064,-0.057666,-0.81506,-0.63142,0.27997,-0.94257,0.029489,0.23234,0.43405,-0.20437,-0.38459,-0.60104,0.47528,0.28451,0.1055,0.49172,0.2402,-0.38734,-0.63606,-0.92359,0.27412
0.1144,-0.75711,-0.46862,0.97115,-0.69907,0.33467,-0.82435,0.65759,0.9783,0.14614,0.98545,0.11224,-0.75736,0.61475,-0.84735,-0.70626,-0.25679,-0.25691,0.86126,0.38309,-0.0284,0.82685,0.90274,-0.79572,-0.56802,0.65402,-0.93513,0.67735,0.89694,0.33464
0.70449,0.21728,-0.96884,-0.30907,0.51685,-0.96766,-0.13752,0.15618,0.2055,-0.0059765,-0.66808,-0.67745,-0.79419,0.69004,-0.60148,0.85626,-0.95625,0.76629,-0.47219,-0.016244,0.20097,0.034482,0.71261,0.37125,-0.3845,0.47309,0.75447,0.13497,-0.47423,0.93929
-0.35475,-0.25719,-0.00054083,0.41828,-0.91791,0.2538,0.40054,-0.68871,0.82999,0.67071,0.88143,-0.67296,-0.11918,-0.95459,-0.19512,-0.39677,0.98076,0.32668,-0.43548,0.46043,0.4376,0.66409,-0.42972,0.91825,0.6458,-0.043002,0.066208,0.50166,-0.96107,0.6675
0.12891,0.67929,0.31554,0.53301,-0.44779,-0.88276,0.52824,0.76555,-0.18538,0.84102,0.23357,-0.42517,-0.87813,0.13677,-0.090148,0.751,-0.83479,0.087743,0.35833,-0.71302,-0.42772,0.83682,-0.5599,0.55992,-0.81022,-0.1076,-0.22444,0.6142,0.26715,-0.13661
-0.027977,0.9262,0.67893,0.61467,0.80603,0.060393,-0.18775,0.47235,0.84213,0.80193,0.41124,0.13216,-0.20135,-0.071118,0.19252,0.14711,0.55043,-0.50956,-0.037954,-0.43216,0.8196,-0.081782,-0.51932,-0.90346,-0.37031,0.86023,0.22726,0.18099,-0.084835,0.76265
0.57025,0.50415,0.95381,-0.068986,-0.1046,0.44591,-0.15053,0.90887,-0.67332,-0.48214,0.29836,0.9984,0.41175,-0.37126,0.71125,0.61255,0.60043,0.98988,0.62303,-0.87569,0.75962,-0.31538,0.69692,0.15824,-0.51947,0.65285,0.73473,-0.64091,0.42053,-0.7115
0.24509,0.95545,0.9447,-0.059954,0.072317,-0.085455,0.72413,-0.60164,-0.81215,0.48578,-0.94757,-0.89996,0.057983,-0.79946,0.86897,0.71241,-0.3861,-0.5158,0.87098,0.22564,0.28499,-0.091565,-0.74518,0.17799,0.35148,-0.51755,-0.27315,-0.78113,-0.94212,0.29781
0.11758,0.94272,-0.32392,-0.3657,-0.83701,-0.40051,-0.67617,0.048624,-0.21136,0.075069,0.2073,-0.45821,-0.47973,0.5246,-0.78401,-0.36409,0.38727,0.015073,-0.9128,-0.5772,-0.37327,-0.5924,-0.99222,0.063756,0.7626,0.56201,0.73829,-0.27036,0.979,-0.071608
-0.62275,-0.18408,-0.30099,-0.37393,0.75244,-0.49932,0.9464,0.092888,0.45004,0.12003,-0.97983,0.2126,-0.2238,0.36306,0.772,0.71256,0.44509,-0.65408,-0.61059,-0.71855,-0.062916,-0.0089177,-0.19565,0.74048,-0.37841,0.27832,-0.93033,-0.58312,0.20219,-0.96931
-0.27236,0.33139,0.47035,0.84804,0.37492,-0.75224,0.46434,-0.67028,0.12322,-0.94783,0.83481,0.39144,0.31223,-0.28603,0.73326,0.56304,0.66224,-0.032816,-0.48905,-0.54811,0.19793,0.74743,0.90855,0.026254,0.85408,-0.40845,-0.79677,-0.075591,0.75142,-0.88727
-0.76834,0.081957,0.16451,0.66234,0.47262,-0.38048,0.3529,-0.74981,-0.94552,0.49062,0.97482,0.097476,-0.65349,0.80581,0.72608,0.412,-0.91129,-0.40728,-0.16882,-0.61472,0.28914,-0.14871,-0.46134,0.077971,0.14533,-0.72247,0.53884,0.52636,-0.8458,-0.74773
0.91441,0.77184,0.22734,0.11559,0.51928,-0.72833,0.79338,0.24824,-0.14399,0.99211,-0.31542,-0.70871,-0.81108,0.7049,0.331,-0.063688,0.17709,0.78073,-0.024776,0.52002,0.78304,-0.41534,-0.10226,0.084676,-0.070383,0.67061,-0.46635,-0.86603,-0.011252,-0.48545
-0.2753,0.5781,-0.21283,0.67908,-0.4778,0.3166,-0.59895,-0.0096373,-0.82677,0.83499,-0.51112,-0.094956,-0.75172,-0.02636,0.71026,0.91436,0.2133,0.25392,0.36073,0.92605,0.54526,-0.46556,-0.90769,-0.88781,0.12658,-0.2639,-0.39878,0.27556,-0.77743,-0.26088
-0.58684,-0.087735,-0.17005,0.78173,-0.58058,0.028412,-0.48421,-0.66953,0.58977,0.37071,0.86612,0.54035,-0.30649,0.60737,-0.5411,-0.30077,-0.52635,0.46907,-0.28338,-0.60122,0.99085,-0.6655,0.94353,-0.24986,-0.32849,0.96385,-0.43134,-0.51116,-0.42468,-0.15078
-0.77356,0.003433,0.90457,0.76263,0.67771,0.94308,0.47505,0.76061,0.63158,0.81613,0.080419,-0.80289,-0.6559,0.20738,-0.6703,0.99103,0.007864,0.46935,-0.58049,0.05965,-0.70273,-0.1622,-0.39366,0.035856,-0.075369,-0.87462,-0.27678,0.86195,-0.85163,-0.62913
0.22487,-0.81157,-0.55477,0.19177,0.25603,-0.93992,0.8647,-0.4188,-0.80497,-0.99172,-0.50475,-0.51112,0.66361,-0.39057,-0.60322,-0.0036081,0.07624,-0.35951,-0.27086,-0.96063,-0.3853,0.096518,0.11905,0.95437,0.76529,0.40999,0.80931,-0.75477,-0.98737,0.73834
-0.54887,-0.38307,-0.73424,-0.29395,-0.5925,-0.2155,0.10483,-0.033274,-0.55547,-0.034891,0.11767,0.35675,0.12178,0.22464,-0.060796,0.13906,-0.89086,-0.99669,0.86359,-0.13093,-0.88838,-0.46942,-0.85215,-0.0039898,0.18786,-0.66976,-0.64771,0.80117,-0.39748,-0.37692
0.12945,-0.31005,-0.060819,-0.027114,0.90957,-0.25873,0.2834,0.088011,-0.82388,0.82426,0.97748,0.73789,-0.20793,0.17044,-0.45167,-0.62757,-0.28976,-0.09769,0.20965,0.22113,0.40883,-0.32394,0.13681,0.093258,-0.020271,0.61123,0.74668,0.098444,-0.3134,-0.43876
0.98198,-0.65678,0.53747,0.59713,0.12262,0.22316,0.96556,0.17594,-0.081905,0.82153,0.6331,-0.93286,-0.94053,0.14506,0.80307,-0.51592,-0.43602,-0.45144,-0.23278,-0.5671,-0.84507,-0.22231,-0.68305,-0.56162,-0.92459,-0.72699,-0.11017,0.35894,0.43317,0.66807
0.52723,0.49523,0.89026,-0.82276,0.60894,-0.84259,0.6635,-0.83353,-0.51899,-0.0032918,-0.61521,-0.4036,-0.10011,0.64406,0.79853,-0.6629,0.43239,-0.99219,0.87666,0.74399,0.96529,-0.90398,-0.53814,0.64031,0.025081,0.60605,0.64457,0.56569,0.34192,-0.25823
0.88308,-0.13213,-0.48509,-0.96022,-0.56876,-0.26601,-0.84252,-0.19922,-0.80333,0.99046,-0.58672,-0.81467,0.94053,0.54028,-0.040342,-0.46473,0.48119,0.91485,0.95031,0.77358,0.6432,-0.34113,0.54964,0.41455,0.34405,-0.99182,0.96047,0.49783,0.88037,0.87459
-0.8171,-0.58458,0.16628,0.13719,-0.40273,-0.60478,-0.63351,-0.19794,0.94751,-0.80542,0.54664,0.24718,0.79876,-0.363,-0.42362,-0.27703,0.56623,-0.41784,0.92795,-0.1674,0.57577,-0.86227,0.59498,0.67774,0.97416,-0.85404,-0.12116,0.8488,-0.54427,0.72238
0.77462,-0.3975,0.21716,-0.22535,-0.67377,0.20548,-0.98629,-0.77672,-0.42363,-0.29214,0.41764,-0.87682,0.92163,0.78176,0.80741,0.11423,-0.05964,0.60205,-0.48409,0.5964,-0.22814,0.90334,-0.17483,0.38001,0.47915,-0.93053,0.34836,-0.66104,-0.43357,-0.014352
-0.72477,0.092756,0.080408,0.3476,0.50553,0.5277,0.32907,0.34495,-0.67816,0.38196,0.57053,-0.35197,-0.39987,0.069813,-0.50582,0.61678,0.47796,0.59392,-0.25284,-0.42895,-0.16414,-0.87665,0.51907,0.35277,-0.76998,0.60625,-0.90893,-0.47556,-0.22424,-0.9953
-0.17178,0.017734,-0.80062,-0.65738,0.086386,0.63929,0.054309,-0.095582,-0.55555,0.45036,0.19625,0.73386,0.99734,0.093425,-0.62087,-0.37605,0.97684,0.2083,0.048546,0.89742,-0.018747,-0.036351,0.74065,0.74101,-0.74786,0.074163,0.73009,-0.55095,0.23751,-0.23648
0.10899,0.7471,-0.54494,-0.71824,-0.82155,0.65411,-0.21924,-0.93609,-0.34152,-0.81869,-0.21119,0.55839,-0.63354,-0.68817,0.047475,-0.25428,-0.95891,0.70416,-0.43034,-0.72267,-0.6814,-0.57178,0.58989,0.27899,-0.046675,-0.59109,-0.33594,-0.48568,-0.16011,-0.18951
-0.27744,-0.034635,-0.64901,-0.86629,-0.23026,-0.21371,-0.080582,0.41813,0.083653,-0.12091,-0.69252,0.13467,-0.94032,-0.28839,-0.55822,0.54717,0.0081094,-0.52518,-0.41565,-0.34631,0.51471,-0.85687,-0.069519,-0.14306,0.69629,0.61803,0.060498,-0.69875,-0.63393,0.92885
0.62751,0.081187,0.22891,-0.89956,0.99708,-0.16023,-0.28827,-0.056523,-0.10206,0.95058,-0.27255,-0.59161,0.46072,0.95402,0.28908,0.7929,0.7088,-0.23567,0.12706,-0.46187,0.041621,0.021685,-0.90044,0.093147,-0.83721,-0.46874,-0.1523,0.201,-0.11296,-0.64039
0.91543,0.65553,0.94877,-0.7288,0.86076,0.34276,0.10815,0.45304,-0.037711,-0.38053,0.50406,-0.99812,-0.68052,-0.61647,-0.26224,-0.76452,-0.19161,-0.14274,-0.64259,0.24491,-0.22433,-0.024559,0.077036,0.034553,0.82305,-0.017725,-0.96935,-0.37469,0.94777,0.76979
0.45086,-0.845,0.67674,-0.36211,-0.17905,-0.29504,-0.54292,-0.477,-0.50281,-0.92703,-0.65513,-0.59948,-0.3066,0.079393,-0.77503,-0.79421,0.6058,0.76741,0.63426,0.56237,0.7433,-0.10478,0.74414,-0.36468,-0.83074,-0.51994,-0.29595,-0.072302,-0.58302,-0.076412
-0.36521,0.98766,0.16453,0.51589,-0.1445,-0.613,-0.13629,-0.79923,0.30676,0.48922,-0.66542,0.67145,-0.15251,-0.359,-0.006781,-0.0083301,-0.70616,-0.34342,-0.50897,-0.73763,0.83696,0.9637,0.72034,0.84594,0.48412,0.63112,-0.29393,0.50418,0.30948,0.46099
-0.073969,0.94375,-0.62698,-0.47108,-0.64661,-0.18117,-0.03284,0.47781,0.0038408,-0.89105,0.91226,0.46593,0.94114,0.4126,0.1945,-0.77457,-0.0055789,-0.97525,-0.52499,0.97004,0.69677,0.53077,0.085905,-0.62534,0.76389,-0.77378,0.41457,-0.29277,-0.090218,-0.20088
-0.53569,-0.56797,-0.67958,-0.23008,-0.33859,0.75988,-0.75857,-0.99798,-0.9728,0.82522,0.44451,0.3858,0.38971,-0.84023,-0.037441,0.28375,0.31433,-0.10133,-0.45282,0.24897,-0.42002,0.31489,0.070618,-0.96952,-0.12447,0.85993,-0.14554,0.25883,0.17939,-0.40022
-0.30712,0.95855,-0.16089,-0.55034,-0.3644,-0.066156,0.27406,0.85566,0.74766,-0.063447,-0.50563,0.80127,0.2518,-0.076277,-0.91407,-0.22541,-0.22482,0.49982,0.65007,0.16622,0.71014,-0.28393,0.4562,0.14823,0.35977,0.84422,-0.0092524,-0.8215,0.88955,0.23684
-0.58216,0.62076,-0.66028,0.28408,-0.36619,0.46045,0.86333,0.43768,0.054584,0.16704,-0.74188,0.30301,-0.31807,-0.48111,-0.78737,-0.12471,-0.43563,0.963,0.60657,-0.80169,-0.36867,0.15513,0.18092,0.63425,0.86374,0.4721,0.69392,-0.28545,0.54529,-0.1583
0.7998,-0.97704,0.26681,0.16645,0.036468,0.43541,-0.91705,-0.26486,0.60429,0.015349,-0.66327,0.64198,-0.20049,0.20524,0.84154,-0.94824,-0.38426,-0.081947,0.49687,-0.46952,-0.14793,-0.029545,0.17793,0.96151,-0.23524,0.7188,-0.63963,-0.20019,0.021843,-0.13181
-0.33363,-0.97411,0.70358,-0.96511,0.60941,0.75498,-0.13636,-0.38089,0.62955,0.85723,0.28995,-0.3114,0.12234,-0.34841,0.29586,-0.44558,-0.63919,-0.58511,0.766,-0.0078052,0.66336,-0.70141,-0.76508,0.65103,-0.16939,-0.19916,0.63605,-0.66054,-0.74214,0.64686
-0.35511,-0.59077,-0.80938,0.41401,-0.77936,-0.72764,-0.397,0.84273,-0.014136,0.057483,-0.86671,0.2023,0.40535,-0.6051,0.844,0.39006,0.80228,0.36685,0.84584,0.01483,0.16754,-0.10552,-0.76936,0.10376,0.38518,0.46798,0.69435,-0.73571,0.676,-0.21096
0.62373,-0.70763,-0.067993,-0.48899,0.0011331,-0.065239,0.31687,0.31787,0.83452,-0.76873,0.75975,-0.37777,-0.69893,0.4648,-0.0078233,0.58057,-0.33508,-0.97329,0.75768,-0.22197,0.99859,0.44329,0.22986,-0.021072,0.54183,0.80603,0.1351,0.8973,0.60302,-0.76945
-0.86199,0.35621,0.20405,-0.53696,0.093256,-0.53126,0.29942,-0.50377,0.81681,0.69698,0.077063,-0.48586,0.11255,-0.080716,-0.097681,-0.19582,0.6755,0.035986,-0.28655,0.68603,-0.70752,-0.99333,0.74191,-0.92762,-0.55705,-0.95105,0.95276,0.82991,-0.69261,0.63516
-0.18792,-0.47292,-0.22665,0.53747,-0.74186,0.025413,0.90346,-0.16855,0.23175,0.48935,-0.28252,-0.33659,-0.85054,0.37118,0.57319,-0.88819,-0.56945,0.53155,-0.026432,-0.2709,0.9105,0.6452,0.43102,0.32697,0.32776,-0.10699,0.41414,-0.19241,-0.91104,-0.92942
0.12256,0.62124,-0.13628,0.27462,0.89002,-0.017773,0.61315,-0.25576,0.62037,0.17328,-0.2688,-0.19117,0.14437,0.42071,-0.40413,-0.37657,-0.2978,-0.0083127,-0.36521,0.018932,-0.60599,-0.5675,0.93004,0.85737,-0.31894,0.47824,-0.20167,-0.010031,0.83402,0.46408
-0.3141,0.68467,0.92185,0.0422,-0.92178,0.86959,-0.57379,0.66871,0.92895,0.12123,0.55547,-0.90875,-0.44085,-0.098184,0.98422,-0.48388,0.6835,-0.33198,-0.64044,0.35682,-0.54064,0.83713,0.67822,0.74122,0.63454,0.12848,-0.20027,0.95091,0.23863,0.81885
0.44396,-0.43541,-0.068407,-0.24058,-0.27236,-0.93977,0.78701,0.9635,-0.19842,-0.86447,0.63398,-0.73515,-0.49812,-0.61776,-0.32948,-0.21017,-0.22055,-0.86186,-0.83176,-0.39309,0.78098,-0.83468,-0.29825,-0.11628,0.79043,0.045786,0.056383,0.59068,-0.66303,0.79215
-0.62497,-0.17979,0.003429,0.40685,0.086563,-0.12653,-0.40853,0.54264,0.75967,0.17689,-0.97247,0.83913,0.31899,-0.62396,-0.25334,-0.65391,-0.18309,0.33669,-0.49875,0.73419,0.38971,-0.24161,-0.40324,0.60469,-0.83913,0.48318,-0.59611,-0.079235,-0.053182,-0.47119
-0.19531,-0.96436,0.95789,-0.39384,0.4964,0.43412,-0.39215,-0.94154,0.56634,-0.91057,-0.10617,0.5557,-0.55378,0.92369,0.68513,-0.34642,-0.57027,-0.089692,0.27328,0.1162,-0.099188,-0.20604,-0.05294,0.65873,-0.86476,0.89689,0.16462,-0.51111,0.29316,-0.72466
-0.84584,0.33556,-0.85556,-0.78113,-0.69272,0.97619,-0.9495,-0.050659,0.036105,0.48399,-0.14058,0.57253,0.45335,0.56377,0.28756,-0.74685,0.16666,0.73639,-0.23999,0.53769,0.90719,-0.7786,-0.29021,0.0049898,-0.055078,0.68328,0.36447,-0.9154,-0.94363,0.19411
-0.081145,0.37052,-0.33554,-0.23733,0.26371,-0.48402,-0.81804,-0.92019,0.93896,-0.71285,-0.7749,0.80815,0.22393,0.98058,-0.35781,0.90861,0.76246,0.26248,0.67117,0.25212,0.77111,0.47292,-0.53045,0.46601,0.50339,0.29737,0.35647,0.026945,0.78774,-0.67757
0.86766,-0.30524,-0.6762,0.63309,0.036893,-0.061657,-0.69901,0.19598,0.094717,-0.87693,-0.85128,0.35293,0.85076,0.54901,0.21892,0.33846,0.77523,0.085194,0.78287,0.25155,0.52975,-0.71658,0.95532,-0.94015,-0.949,0.09104,-0.17193,0.60308,0.94938,0.20026
-0.3268,-0.55065,-0.1362,0.40751,0.83466,0.068001,0.74946,-0.4657,-0.96965,-0.13379,0.51378,0.22736,-0.48563,-0.57973,0.76762,-0.52122,0.95957,0.69599,0.62975,-0.98744,-0.68055,-0.59463,-0.71286,0.85762,-0.32809,0.50984,-0.1743,-0.72934,-0.85751,0.25964
0.91201,0.70818,0.5289,-0.67279,0.036867,-0.012365,0.64921,-0.58589,-0.83037,-0.53451,0.014464,0.60012,-0.2784,-0.99674,0.87213,0.86321,-0.41782,-0.6218,0.39643,-0.97422,0.92422,0.59777,-0.84984,-0.68658,0.6021,-0.97083,0.3402,0.24147,0.88061,0.88553
-0.057179,0.68106,-0.18373,0.52845,0.75803,0.55586,0.60559,-0.4928,0.36726,-0.65368,0.91016,-0.41742,-0.52501,-0.12363,-0.35687,0.72304,-0.90815,-0.24599,0.71719,0.2248,0.89727,0.57578,-0.25565,0.67709,0.72935,0.89964,0.49384,-0.69657,0.42945,-0.61965
-0.64385,0.87173,-0.073342,0.85114,-0.92138,0.89317,-0.90068,0.7,-0.58218,-0.99122,0.023037,0.040627,0.80271,-0.25823,-0.57034,-0.61589,0.81322,0.34631,0.085172,-0.88297,-0.4557,-0.48354,0.10278,0.94073,0.54846,-0.19541,-0.31532,-0.92946,-0.6104,0.95194
0.089409,-0.38222,0.79848,-0.57677,-0.90511,0.65507,0.092838,-0.39014,-0.18159,-0.49568,0.56987,-0.067306,-0.70216,-0.91877,-0.50783,-0.63177,0.50543,0.235,0.54262,-0.51624,-0.89806,0.76275,0.67858,0.054028,-0.47056,0.96866,0.53763,-0.9927,0.79331,-0.72736
0.24787,0.79067,-0.32837,-0.58803,-0.60645,-0.85214,-0.034287,0.57523,-0.90989,0.48568,0.94556,0.51609,-0.38446,-0.54485,-0.30115,0.22842,0.24403,-0.13508,0.16603,-0.77798,-0.0025925,-0.42603,-0.67694,-0.99138,-0.31297,-0.00013734,-0.98757,0.87048,-0.32181,0.20262
0.018272,0.95017,0.88761,-0.36535,0.62962,-0.0047944,-0.016596,-0.58979,-0.94403,-0.80611,-0.093726,-0.60552,0.64403,0.11567,0.40185,-0.99774,-0.56357,-0.6845,0.90147,-0.94431,0.85609,0.23642,0.24932,-0.66828,-0.59035,0.079234,-0.65458,0.80493,0.59156,-0.56424
-0.029414,-0.40629,0.17288,0.20297,0.41452,0.99548,-0.14116,0.94823,-0.3,0.62387,0.21946,-0.1708,-0.42088,0.28447,-0.10798,0.98502,0.41082,0.49602,0.54704,-0.5589,0.31778,0.87047,-0.3857,0.30753,0.88539,-0.1598,-0.74448,0.33353,-0.12006,0.063012
-0.085609,-0.51362,-0.61498,0.80724,0.23775,-0.78702,0.89488,0.49071,0.12914,0.57241,-0.94054,0.69238,-0.37959,0.47938,-0.42757,-0.1588,-0.69529,0.96266,0.55331,-0.34209,-0.53894,0.33818,-0.35911,-0.89873,0.02066,0.55064,0.54309,-0.50294,-0.39875,0.94783
0.78171,-0.34316,-0.87051,-0.50879,0.40684,-0.26692,-0.69376,0.12083,0.75566,-0.81449,-0.7559,0.33959,0.46283,-0.55112,-0.71617,-0.81745,-0.12166,0.22657,-0.42464,-0.35348,-0.91814,-0.07129,0.17209,-0.25728,0.2608,0.34827,-0.20123,0.43699,-0.27667,-0.85247
0.069637,0.4498,-0.1794,-0.87785,-0.39789,-0.35593,-0.24335,0.46789,0.49893,-0.9549,-0.88692,0.90874,0.17484,-0.88065,-0.30784,-0.87115,-0.57557,0.67474,-0.11806,0.46491,0.7958,0.12174,0.33478,0.49187,0.20278,0.41265,-0.033037,-0.41173,-0.8916,0.93187
-0.018303,-0.15264,-0.62947,0.25877,-0.10902,-0.60992,-0.13955,0.59674,0.98192,0.10361,-0.1922,0.75548,0.25488,-0.23612,-0.86902,-0.51414,0.2364,-0.49616,0.81235,-0.40701,-0.43315,-0.3322,0.71938,-0.97532,0.8488,-0.72062,-0.33095,-0.50994,-0.41478,-0.80595
0.98304,-0.82648,-0.66783,0.68933,0.69066,-0.28847,0.0007558,-0.13524,0.45429,-0.55924,0.92693,0.49023,0.0082928,-0.6945,0.12086,-0.32198,-0.7575,-0.30865,-0.34504,0.98692,0.28099,-0.087883,0.24006,0.47123,-0.79246,0.84184,-0.037634,-0.42928,-0.13562,-0.30469
-0.644,-0.76429,-0.75752,-0.015414,-0.27788,-0.77349,-0.28225,-0.63981,0.92278,0.98725,0.51336,-0.47346,-0.16756,0.086139,-0.0095173,-0.89163,0.98601,-0.27241,-0.11077,-0.22647,0.97071,0.42531,-0.52918,-0.95431,0.39254,0.49972,-0.33682,0.79615,0.89146,0.0011456
-0.55858,0.87027,-0.086868,0.71103,-0.29317,-0.1435,0.44265,0.62666,0.41713,-0.063606,-0.43342,-0.79458,-0.50484,-0.35306,-0.85117,-0.77881,-0.92772,0.73077,-0.040947,0.52323,-0.67983,-0.29957,0.093572,0.79186,-0.6479,-0.77875,0.10484,0.019338,-0.32515,0.50427
0.4256,0.79041,-0.1547,-0.4657,-0.62522,0.25101,0.12742,-0.79626,-0.63591,-0.41959,-0.44471,0.093042,-0.71286,-0.39765,0.2458,-0.15696,-0.45577,0.048514,0.47046,0.72566,0.84178,-0.89649,-0.8039,0.10068,0.25636,0.29398,0.93049,0.34455,0.87043,0.10894
0.023558,-0.42094,-0.2237,-0.61521,0.49525,0.35388,-0.43968,-0.5103,-0.59703,0.12629,0.59534,0.82837,0.35347,-0.61328,0.78044,-0.5886,0.55187,0.77221,-0.96986,0.18126,-0.50136,-0.34152,0.1529,-0.63092,-0.79122,-0.30691,0.37605,0.66821,0.46816,0.8268
0.20454,-0.029322,-0.41044,0.012565,0.78134,0.73582,-0.98309,0.033301,-0.39706,0.59212,-0.045108,-0.15338,-0.41293,-0.28833,0.043146,-0.38042,0.74405,0.19832,-0.85872,-0.39643,0.79116,-0.98527,0.085126,-0.05182,0.58118,0.14214,-0.14321,-0.56533,0.22445,0.86369
0.29114,-0.3762,0.63096,0.32933,-0.33961,0.58814,-0.90588,0.56521,-0.97714,0.704,0.26168,0.014992,-0.80462,-0.45605,0.49454,0.4683,0.88295,0.29208,0.39532,-0.27216,0.48446,-0.16422,-0.098328,0.1466,-0.46452,0.40508,-0.7955,-0.4323,0.46111,-0.18268
-0.13208,0.2062,-0.1992,-0.6349,0.74633,-0.51135,-0.29306,-0.76522,0.55739,-0.26972,0.28095,-0.24319,-0.29541,-0.48632,0.69895,0.11839,-0.79356,0.20456,-0.32276,-0.31126,0.93955,-0.94357,-0.35069,-0.54356,-0.17692,0.80591,-0.97714,-0.23381,-0.075796,-0.83319
-0.042054,0.60084,0.63749,-0.47713,-0.029074,0.25564,-0.43794,-0.53602,-0.18617,-0.21193,0.47944,-0.47191,-0.72907,0.2711,0.13291,-0.082105,-0.3185,-0.60906,0.9793,-0.9388,-0.53159,0.37922,0.72144,0.59155,-0.72459,-0.33769,0.012017,0.87875,-0.13126,0.064845
0.99929,0.64776,0.12908,-0.62169,0.56615,-0.94241,0.13006,-0.6323,-0.21157,-0.61766,0.38041,-0.41744,-0.50636,-0.056503,-0.40092,0.75239,-0.00068719,-0.10427,-0.86359,0.61368,-0.52943,-0.7904,-0.7703,-0.021766,0.027826,-0.32001,-0.21434,0.83796,0.96286,0.10077
0.08351,0.42837,0.66803,0.70894,-0.47493,-0.038123,0.10224,-0.89165,-0.80976,-0.86248,-0.68699,-0.69682,-0.78465,0.77813,0.029245,-0.049521,-0.056435,0.66945,0.60965,-0.51639,0.58776,0.088981,-0.89576,-0.97531,-0.90863,-0.18614,0.59904,0.68565,-0.60744,0.479
-0.9248,-0.84321,0.41904,-0.20596,-0.83312,-0.014074,-0.39021,0.91747,-0.1565,-0.21016,-0.022255,0.61875,0.67099,-0.25509,-0.42834,-0.98297,0.20336,-0.86454,0.27371,-0.30268,-0.28399,0.66632,0.21567,-0.78358,0.29229,-0.50072,0.018969,-0.98257,0.15103,-0.25569
-0.82436,-0.50428,0.30147,0.58052,-0.67267,-0.50455,-0.28345,-0.12573,0.33738,0.11081,-0.32092,0.43055,-0.92811,0.25403,-0.77336,-0.77462,0.38581,-0.35358,0.90066,-0.95628,-0.41306,-0.15237,0.25208,0.34303,-0.60704,0.024383,-0.10611,-0.87766,0.15701,-0.3617
0.21648,-0.44886,0.58019,-0.4488,0.92056,-0.7444,0.8781,-0.049047,0.53964,-0.76858,0.036826,0.80976,-0.84979,-0.031957,-0.14158,-0.96087,-0.7327,-0.65371,-0.51206,0.081192,0.45737,0.75856,0.68595,0.039937,-0.39277,-0.33642,-0.14249,0.60544,-0.95695,0.75608
0.75435,-0.90807,0.9444,-0.3452,0.7839,0.96321,-0.25706,0.36173,-0.56755,0.37601,0.6212,0.87088,-0.37544,0.73328,-0.46398,0.38572,0.28237,-0.77241,-0.63778,-0.83252,0.49253,-0.54812,-0.52846,-0.81767,-0.24386,0.28655,0.58544,-0.85769,-0.93907,0.79044
-0.74749,-0.29985,0.66749,-0.61466,0.18464,-0.029929,-0.79293,-0.29246,0.13582,-0.93317,-0.28191,0.29345,0.034525,0.49182,-0.58513,-0.18575,-0.22417,-0.32788,-0.42674,0.91065,0.12983,-0.90322,-0.56877,-0.48291,0.53987,-0.034624,0.092648,0.62258,0.006467,0.26089
-0.67457,0.85178,0.26053,-0.96821,-0.41132,-0.75145,0.90828,0.41027,0.26021,0.49329,-0.30092,-0.75664,0.31832,-0.58202,-0.39611,0.30542,-0.55037,-0.61706,0.63922,0.1883,-0.15136,-0.92922,0.34689,-0.98713,-0.23304,0.13327,0.72147,-0.5005,-0.98352,-0.74947
0.8936,-0.88707,-0.095807,0.89907,0.15301,-0.17457,0.99792,0.38194,-0.96955,0.14469,0.3111,0.89841,-0.11241,-0.7314,-0.96575,-0.61207,-0.78642,-0.57067,-0.4948,0.077038,0.22504,0.24605,0.1059,-0.97263,-0.94097,-0.37307,0.99833,-0.79274,0.11813,0.83346
-0.00039223,0.8778,-0.38767,0.024903,0.007931,0.9796,-0.88783,0.91315,0.27116,0.44772,-0.70259,0.87082,0.30849,-0.56708,-0.3693,0.33473,0.13751,0.7269,0.16234,-0.25507,0.49348,0.20117,0.88188,0.80525,0.35555,0.38781,0.73578,0.52938,-0.39964,-0.46782
-0.18391,-0.65242,0.84531,0.47066,-0.58415,0.94306,-0.12396,-0.96187,-0.27495,-0.94178,-0.20014,-0.19612,0.35467,0.97202,-0.5376,-0.89601,-0.49812,0.056357,0.57229,-0.043553,0.57687,0.51128,0.98325,0.99774,-0.73912,0.70037,0.92772,0.43916,0.37753,0.85156
0.036656,-0.25625,0.93208,0.041747,-0.99957,0.77405,-0.847,0.60936,-0.59584,-0.7872,0.26691,0.043433,0.57343,0.42867,-0.60158,-0.6762,-0.51816,-0.91109,0.20541,0.39079,-0.82521,0.18892,0.32655,-0.21649,0.65217,0.67479,0.6084,-0.4066,0.54516,-0.5438
0.76401,-0.40128,-0.44206,-0.37612,-0.82126,-0.82705,0.92586,0.64091,0.020737,0.47117,-0.16393,0.22843,-0.85196,0.20333,-0.26089,-0.23256,-0.43364,-0.60626,0.9882,-0.71483,0.79342,0.037975,0.56291,-0.58058,-0.16141,0.58055,-0.060058,0.4603,0.70821,-0.1323
-0.13889,-0.93308,-0.90263,0.98488,0.84779,-0.58243,0.97202,-0.51397,-0.0559,-0.73484,-0.90212,-0.92604,-0.72795,0.28717,0.70793,-0.81107,0.94886,0.92185,-0.20644,0.16803,-0.411,0.86213,0.26204,0.2491,-0.20585,0.10851,-0.81686,-0.76357,0.60577,0.38096
-0.57398,0.27761,-0.43432,0.77552,-0.83892,0.86189,0.52849,0.60441,0.29381,-0.61566,-0.12494,0.66094,0.44007,-0.33405,-0.101,0.44477,-0.42631,-0.66665,-0.42192,0.90829,0.56985,-0.50016,0.45312,0.28915,-0.056305,0.97123,-0.25223,0.38915,0.11822,0.96144
0.8856,-0.32707,0.64446,0.64661,-0.077897,0.61435,0.041618,0.93005,-0.066367,-0.5168,-0.50521,0.39693,0.36751,-0.67539,0.069504,-0.47921,0.80498,-0.62196,-0.40345,0.69336,0.54408,0.75001,0.062091,0.52621,0.53273,0.71926,0.13802,-0.33266,-0.62549,-0.40418
-0.51705,-0.8252,-0.25719,0.54425,0.023982,-0.3098,0.25142,-0.62016,0.38257,-0.5347,0.056742,0.45677,-0.24319,0.69319,0.68526,0.65981,0.36036,0.6458,0.12759,0.86178,-0.89292,0.2315,0.93236,-0.76589,0.49199,-0.55553,-0.53772,0.79078,-0.90619,-0.39502
-0.40647,0.33276,0.18545,-0.22751,0.86966,-0.5661,-0.89598,-0.64495,-0.42702,-0.45634,0.16393,0.12546,-0.6262,0.82633,-0.55436,0.70769,0.632,0.48169,-0.78201,-0.32669,0.59612,0.63436,0.43003,-0.049294,0.21174,-0.5526,0.25229,-0.69915,-0.89071,-0.79177
-0.16428,0.77352,-0.13941,-0.34355,-0.17396,0.77632,0.37124,0.39559,0.087408,-0.84977,0.80209,-0.59297,0.20039,-0.27446,0.99593,-0.38709,-0.23167,-0.94083,-0.48458,-0.0266,-0.45807,-0.26468,0.51931,-0.19978,-0.78061,-0.50323,0.39163,0.9728,-0.57736,0.029925
0.45986,0.94337,-0.12481,0.70158,0.84473,0.26261,0.77997,0.69191,0.85787,-0.93094,0.33465,0.92461,0.083399,0.30695,-0.96749,0.20327,0.70984,-0.41086,-0.34262,-0.71294,0.52323,-0.38905,0.16782,-0.4365,-0.29452,0.11782,0.51351,0.14321,-0.64329,0.2249
-0.46025,-0.58237,-0.058273,0.46059,-0.54422,-0.49042,-0.27952,-0.43551,-0.24907,-0.35207,0.43051,0.53108,-0.43027,0.67115,-0.1662,-0.96255,-0.98,-0.25,-0.38047,-0.57847,0.31821,0.61344,-0.53714,0.61645,-0.89914,0.8524,-0.11379,-0.94644,0.1186,0.40212
-0.0048308,-0.56496,-0.99064,-0.05796,0.84286,0.30145,0.66838,0.046464,-0.71096,-0.77099,0.17311,0.17918,-0.65071,-0.10949,0.29427,-0.052635,0.82978,0.2713,-0.50581,-0.011611,0.49238,0.21601,-0.89151,-0.87194,-0.93912,-0.17921,0.48257,-0.61874,0.77236,0.82757
0.040346,0.1471,-0.15726,0.79918,-0.83059,-0.72928,-0.3276,-0.84186,0.32131,0.77874,-0.13419,-0.94243,-0.57174,-0.38109,0.85925,0.88481,0.33461,-0.47435,-0.74508,0.60689,-0.95412,-0.7059,0.71778,-0.62801,0.25928,-0.23766,0.48017,0.29434,0.91255,0.95257
0.24723,-0.28106,0.82116,0.18515,-0.49222,-0.80168,-0.78859,-0.36936,-0.10936,0.57592,0.023637,-0.42396,-0.50301,0.50617,-0.67015,-0.54582,0.80831,-0.10649,-0.92986,-0.047666,0.19314,-0.89462,-0.57746,0.64171,-0.33883,0.49549,0.19917,-0.47631,0.48825,0.87045
-0.73857,0.1057,-0.084212,0.23887,0.072145,0.76365,0.27863,-0.22852,0.58747,0.024129,0.99145,-0.78964,0.72678,-0.74269,0.61882,-0.20043,0.84598,0.39632,0.23929,-0.22706,-0.16102,0.071747,0.74048,-0.47486,-0.73615,0.60864,-0.65374,0.34577,-0.35724,-0.3142
-0.35437,0.49071,-0.11821,0.53372,-0.75347,0.040267,-0.092022,-0.3546,0.87631,-0.48512,0.9506,-0.92468,0.050588,0.99445,-0.242,-0.37971,0.60038,0.4791,0.47941,-0.43126,0.61984,-0.61305,0.76479,-0.98534,-0.020896,0.57665,-0.2982,-0.42474,0.46415,-0.49378
-0.55003,0.077537,-0.84457,0.22389,-0.77676,-0.27146,-0.62418,0.43998,0.6209,0.9566,-0.35944,-0.18013,-0.79272,0.35231,0.5715,-0.68654,0.74192,-0.97966,-0.77094,0.92808,0.22798,-0.34378,0.76493,-0.28725,0.16992,-0.85132,0.077307,0.4596,0.70959,0.64245
0.13211,0.8417,-0.12527,0.76733,0.71039,-0.64162,-0.81137,-0.32121,0.98442,-0.12755,-0.058022,0.79437,0.66879,-0.17506,0.20068,0.37377,0.87197,-0.97775,0.32992,-0.88195,0.83267,0.46304,0.60965,0.66708,0.5564,0.69508,-0.89851,0.51909,-0.93876,0.22292
0.90164,-0.34781,0.38586,0.96151,-0.34335,-0.91596,0.92798,0.30384,-0.26037,0.65314,0.6292,0.93765,-0.47143,-0.57444,0.93237,0.29849,0.7697,-0.99871,-0.86292,0.3499,-0.42425,0.85041,-0.48991,0.92628,0.38239,0.35346,0.39264,-0.5294,-0.54947,0.30831
0.5672,-0.27464,0.3594,-0.94033,-0.63414,-0.82952,0.054975,-0.45589,-0.47337,-0.3032,-0.7248,-0.44701,0.72153,-0.54841,-0.49098,0.88688,-0.62794,0.20066,0.69096,0.98152,-0.50856,0.571,0.49651,0.88759,0.16438,-0.26661,0.56052,0.6115,0.36232,0.83323
0.88565,0.57793,0.37622,0.29271,0.096893,-0.46002,0.33488,-0.45938,0.78006,-0.59173,0.11955,-0.58037,0.17783,0.41962,0.0013124,-0.80459,-0.32962,-0.13599,-0.67946,-0.65857,0.1774,0.76827,0.93695,-0.024732,-0.25604,0.98676,-0.24155,0.37787,-0.51913,0.19967
0.027916,-0.48144,-0.14827,0.0032589,0.62397,-0.88027,-0.78317,-0.70867,0.22334,0.62476,-0.097598,-0.25738,0.53427,0.15156,-0.91772,-0.26885,0.062076,-0.42652,0.5204,0.99581,-0.038904,-0.93984,0.36028,-0.98086,-0.47101,-0.64633,-0.2464,-0.062915,-0.06839,0.090369
0.08091,0.75494,0.4235,-0.79811,0.99241,0.73754,0.54971,0.0018045,0.22934,0.59399,0.71267,0.37205,-0.01286,-0.25886,0.80992,0.97929,-0.37805,0.28101,-0.49437,-0.28395,-0.14555,-0.6583,0.83917,0.31845,-0.99579,0.35555,-0.81976,-0.85652,0.32571,0.74871
-0.13213,-0.15754,-0.44219,-0.62932,0.091689,-0.18588,-0.87493,0.52586,0.96021,-0.14706,0.44676,0.43492,-0.87633,0.93553,-0.53902,0.30604,0.27813,0.13169,-0.32302,0.051644,0.92283,0.62758,-0.60712,0.62495,0.96032,0.060662,0.92988,0.18215,0.27023,0.85568
-0.23438,-0.54613,0.15143,-0.69565,-0.47027,0.070382,0.88762,-0.43958,-0.3267,0.93075,-0.51716,0.23653,-0.88101,0.51847,0.5673,-0.60889,0.51138,-0.79981,0.74608,-0.80662,-0.22623,-0.59535,-0.51323,0.047274,-0.17752,0.32866,0.15866,-0.030648,0.62332,0.86634
0.065565,-0.57977,-0.55245,0.36216,0.35137,0.89971,-0.51874,-0.34042,0.96028,0.097691,0.74712,-0.55272,-0.48512,-0.1238,-0.92256,0.30068,-0.31409,-0.47327,0.51696,0.45251,0.64611,0.87969,-0.26426,-0.94856,-0.52787,-0.66378,-0.30238,0.2552,-0.23682,0.70627
0.14314,0.46385,-0.48004,-0.70629,0.77828,0.40486,0.89647,0.67653,-0.39872,-0.87427,0.78922,-0.2631,0.20171,-0.76692,-0.73053,-0.75524,-0.51314,0.11773,-0.87716,0.44115,-0.53602,-0.41682,0.24053,-0.66458,-0.86295,0.33126,-0.3398,-0.10766,0.62385,0.7153
-0.46053,0.38157,0.7344,-0.6457,-0.98765,-0.76599,-0.28306,-0.19474,0.94669,-0.73914,0.35831,0.88004,-0.96909,0.71345,0.6024,0.58747,-0.42065,-0.59495,0.6331,0.2178,0.82813,-0.70346,-0.049925,-0.70431,0.06752,-0.022558,0.76571,-0.97342,0.59264,0.47593
0.16698,-0.19514,-0.49017,-0.79044,-0.9884,-0.62605,0.2379,0.48879,-0.72296,0.59083,-0.3194,0.9794,0.64705,0.61746,0.77569,-0.58655,0.58222,-0.86339,0.17229,-0.21223,0.068904,-0.65999,0.87315,-0.52703,-0.87231,0.34926,0.16035,-0.4294,-0.70407,0.10981
0.60327,0.84981,0.5483,0.0040902,0.032204,0.52387,0.20378,0.1518,-0.37368,-0.5157,-0.10307,0.081935,0.46861,-0.24181,0.58284,-0.97904,-0.010332,0.32621,-0.38021,-0.68421,0.93741,-0.66119,-0.76706,0.47199,-0.66057,0.38457,-0.019827,0.35853,0.83311,0.064001
0.19688,0.90728,-0.92113,-0.89586,0.90664,0.95029,-0.55625,0.26032,-0.2112,0.20055,-0.65453,-0.64787,0.64393,-0.65243,-0.86018,-0.80712,-0.99455,-0.62447,-0.76198,0.013297,-0.68923,-0.70127,0.25653,0.72806,0.7201,0.3673,0.050217,0.17891,0.087413,-0.030921
-0.075463,0.90297,-0.35811,-0.031852,-0.32261,0.51469,0.35311,-0.24663,-0.024034,0.28496,0.56636,0.37907,-0.64589,-0.84948,0.69203,-0.87742,0.88578,-0.70647,0.4237,-0.31702,0.30547,-0.83695,-0.84624,-0.1131,0.84091,0.10503,-0.23963,-0.33505,-0.33364,-0.91876
0.25811,-0.35014,0.15602,-0.11464,0.84318,-0.52875,0.85535,-0.36673,0.20831,0.33482,-0.87407,-0.53677,-0.090859,-0.86453,-0.86519,0.070725,-0.75865,-0.99975,-0.39872,0.81451,0.20598,0.73962,0.15906,0.082772,-0.075959,-0.46627,0.2744,-0.29967,-0.26637,0.83963
-0.018363,-0.51298,-0.96438,0.58428,-0.59543,-0.94658,0.54892,-0.67221,-0.59283,0.08158,-0.241,-0.47042,0.78849,-0.086007,-0.71475,-0.2051,0.32699,-0.8877,-0.30154,0.036731,0.20203,0.45357,0.76457,-0.36054,-0.43045,0.77577,0.2944,0.20222,-0.040815,0.07772
-0.16143,-0.3318,-0.44468,0.078697,0.8627,0.27493,0.13026,0.088339,-0.24248,-0.3527,0.42993,0.34542,-0.2607,-0.9211,-0.87148,0.027671,-0.97802,-0.65298,-0.53339,0.6579,0.22703,0.54779,-0.18296,-0.6422,0.10823,0.49687,0.48236,-0.45337,-0.98974,-0.091184
-0.99243,0.65056,0.98142,0.79843,-0.38786,0.38449,-0.58478,-0.9533,-0.863,0.12475,-0.65003,-0.19283,-0.45506,0.6644,0.063615,-0.17297,0.78868,-0.64283,0.39698,-0.60572,-0.21894,-0.65909,-0.46518,0.19773,0.55484,0.69201,0.59934,0.47496,-0.28115,-0.48105
-0.50401,0.57737,-0.51545,0.29946,0.74668,-0.2934,0.85925,-0.055496,0.95559,0.29099,0.13629,0.41084,0.81585,-0.79515,0.76953,-0.26874,0.10951,0.83844,0.41505,0.94513,-0.227,0.93933,-0.98696,-0.64421,0.21461,-0.27489,-0.070888,-0.39523,0.50588,0.66081
0.97731,0.78682,0.82757,0.24998,-0.27792,0.07186,0.36727,0.20793,-0.8234,0.19911,0.82018,-0.82977,-0.97756,0.21783,0.17405,0.68868,-0.099395,-0.85808,0.18302,0.30037,0.14013,-0.29866,-0.84741,0.51782,-0.072522,0.90588,0.98098,-0.085701,0.73753,0.80995
0.59314,0.7445,-0.40798,-0.75553,0.6745,0.71193,-0.18191,0.29651,-0.44408,-0.30579,-0.98433,-0.90988,0.47578,0.91275,0.36844,0.9824,-0.10515,-0.98173,0.88321,0.36496,0.23823,0.73822,0.96392,-0.94425,-0.96607,-0.8513,0.78736,-0.38472,-0.49509,0.33728
-0.83333,-0.53798,-0.21982,0.029565,0.71144,-0.53203,0.71448,0.95791,-0.27832,-0.83488,0.8119,0.40082,-0.40563,0.48368,-0.47065,-0.64747,0.006617,-0.62361,-0.68491,0.76008,-0.82265,-0.1725,0.57187,-0.29567,0.14077,0.73774,-0.29565,0.05062,-0.298,0.80438
0.71684,-0.011355,-0.75028,-0.74266,-0.018493,0.00018862,0.40194,-0.42108,-0.15707,0.50864,0.64357,0.76879,-0.47305,-0.98995,0.24447,-0.75933,-0.52315,-0.22648,0.48555,-0.6827,0.97118,0.82867,-0.1571,-0.84288,0.0011265,0.061041,0.3414,0.80819,-0.35654,0.69539
0.17767,-0.83833,-0.86115,0.55607,0.58893,0.5972,-0.77387,-0.79568,-0.85242,0.84364,0.37784,0.81906,-0.083198,-0.95853,-0.01309,0.76103,-0.20095,-0.52143,-0.79309,0.0035369,0.38191,0.67322,-0.30041,-0.022839,-0.33157,-0.80789,-0.64045,0.52077,-0.88797,-0.56089
-0.7618,0.87149,-0.043268,-0.010599,-0.13082,0.25038,-0.83254,0.71525,0.64659,-0.0060811,0.0025176,-0.42007,0.095796,0.97699,0.83591,0.76572,-0.41706,0.25598,0.61926,0.71406,-0.74674,0.57271,-0.34814,-0.48681,0.92685,-0.78288,-0.65296,-0.44715,0.17766,-0.6178
0.37476,-0.34729,-0.066804,0.17538,-0.36649,0.29837,0.21585,-0.37976,-0.56598,0.0052724,0.35674,-0.080225,-0.83852,-0.013279,0.50488,-0.17436,-0.016425,0.29507,0.20523,-0.69483,-0.15935,-0.97834,-0.59868,-0.25741,-0.87907,-0.085309,0.79049,-0.6992,0.67532,0.1894
