0.79857,0.72727,-0.13784,0.48001,0.23349,-0.49948,0.45531,-0.71461,0.66143,0.66104,0.093087,0.28762,-0.48091,-0.98412,0.96752,0.74989,-0.36958,0.70229,-0.64503,-0.37124,-0.1234,0.49109,-0.24997,0.25484,-0.67102,-0.22804,-0.49791,0.43151,-0.82895,-0.32534
-0.61284,0.60222,0.083287,-0.62834,-0.48854,-0.42806,-0.25802,0.90986,-0.83849,0.28897,0.56308,-0.69362,0.88518,0.53856,-0.4555,0.79676,-0.34272,-0.49674,-0.09907,0.0018285,-0.41879,-0.60848,-0.091389,-0.11565,-0.5995,-0.33813,-0.29315,-0.07372,-0.35098,-0.91168
-0.54645,-0.12423,-0.96265,0.081758,-0.067769,0.26227,-0.94153,0.90816,0.95448,0.070891,0.27608,0.37052,0.91627,0.17067,-0.95809,0.71352,0.73179,-0.87625,-0.54277,-0.54051,-0.72703,0.60673,-0.1386,0.29586,0.50759,-0.58639,0.38583,-0.99763,-0.66109,-0.15425
-0.95539,-0.87939,-0.81193,-0.68302,0.83761,-0.79863,-0.18568,0.057917,-0.77867,0.96249,0.83702,0.96092,-0.62774,-0.16384,-0.062431,0.46845,0.16853,-0.10706,-0.19579,0.7629,0.40747,0.52079,-0.81592,0.087075,-0.35104,0.44344,0.574,0.25229,-0.66101,-0.28237
-0.42264,-0.4013,0.092551,0.42559,0.15614,-0.027275,-0.13009,0.91806,0.67892,0.52853,0.17283,0.17273,-0.66504,0.34408,0.96797,0.20379,-0.48884,-0.34171,-0.35424,0.86756,-0.11183,-0.3755,0.076908,-0.97745,0.39207,-0.91829,-0.30169,0.92046,0.45845,-0.45218
-0.97727,-0.46581,0.96349,0.2269,0.69408,0.3992,-0.53855,-0.048789,0.66298,-0.10599,0.76801,0.95242,-0.81956,0.15735,-0.51653,-0.53298,-0.21396,-0.090848,-0.3676,-0.20229,-0.47038,0.90593,0.1046,-0.67476,-0.51512,-0.67926,-0.55493,-0.050828,-0.54837,-0.41359
0.34868,-0.82818,0.57635,0.38271,-0.23982,0.28999,-0.64029,0.14906,-0.51938,-0.45395,-0.92923,-0.65038,0.37502,0.30073,0.52717,-0.30148,-0.95189,0.88671,-0.54994,0.65558,-0.19312,-0.074073,-0.35067,0.43635,-0.028659,-0.088935,0.46522,0.99577,0.095586,-0.9544
0.18404,0.99337,0.044264,-0.33317,0.02687,-0.62325,0.58666,0.71888,0.28858,-0.84095,-0.24309,0.45087,0.93547,-0.33898,-0.87326,-0.94058,-0.65082,0.046697,0.12503,-0.89904,-0.20429,0.99567,-0.083633,0.7289,0.34441,0.11401,0.036934,-0.91549,0.009885,-0.65377
-0.37299,-0.59893,0.35418,-0.091294,0.90464,0.25543,-0.45032,-0.17706,-0.27642,0.71141,0.65771,0.3019,0.36854,0.40353,0.094278,0.17271,0.51341,0.80775,-0.12244,-0.73223,-0.73975,0.50789,-0.53563,0.73415,-0.79566,0.088711,0.92649,0.52987,0.43837,0.088317
-0.47723,0.23906,0.028618,0.35875,-0.60984,-0.3577,-0.40863,0.68097,-0.18484,-0.77531,-0.99242,-0.1752,0.94039,0.57304,-0.28217,-0.93586,-0.67996,0.72109,0.068747,0.97438,-0.57349,0.43591,-0.76059,-0.25486,-0.79686,-0.47687,0.81275,-0.040089,0.32076,-0.72897
-0.11957,0.52301,0.54914,-0.95564,-0.46606,-0.72007,0.14446,0.24184,0.41224,-0.68019,0.93258,-0.43794,-0.34654,0.69293,-0.017808,-0.14831,-0.65595,0.80793,0.56979,-0.21971,0.518,-0.87203,-0.95634,-0.9234,-0.55174,0.38225,0.95804,-0.3145,0.92552,-0.84175
-0.47372,0.50289,0.69266,-0.050609,0.79747,-0.27757,0.6954,0.11584,-0.21016,0.54289,0.68786,0.44229,0.16806,0.055973,0.35911,0.96819,0.12892,-0.44754,-0.92488,0.93617,-0.94475,0.88841,0.43623,0.81862,-0.19551,0.24696,-0.74888,0.39499,-0.95922,0.014913
-0.21668,0.36784,-0.049157,0.56897,0.48474,0.67629,0.14628,0.3646,-0.33391,-0.32077,-0.10997,-0.76892,-0.60521,0.68217,-0.26031,0.57544,0.75988,0.64007,-0.88947,-0.77018,0.096821,0.81445,0.5222,-0.99004,0.83934,-0.84866,0.98806,-0.21297,0.52741,0.51653
-0.16316,0.63726,0.46593,-0.96193,0.91179,0.97245,-0.38336,-0.67052,-0.60922,0.29455,-0.43627,0.95179,0.81824,0.95732,-0.5608,0.054725,0.42153,0.79038,-0.72694,0.46848,0.83476,0.93668,0.46891,-0.22649,-0.43795,0.10502,-0.64521,0.26173,0.21716,0.055361
-0.8982,-0.64311,-0.58791,-0.6019,-0.94791,-0.04516,-0.013726,0.30534,-0.71172,0.94924,-0.47913,-0.2125,-0.01536,0.32738,0.10527,-0.1712,0.9284,-0.21445,-0.65977,-0.018781,-0.38916,-0.0059718,0.21774,0.42404,0.98809,-0.52869,0.7946,-0.26772,-0.67971,-0.068823
-0.072103,0.36689,0.53747,0.61444,0.6284,-0.8816,-0.65903,0.54968,-0.63355,0.5214,-0.17623,-0.040164,-0.91944,-0.40101,0.020194,0.89187,0.82264,0.46233,0.44073,-0.53077,-0.5306,0.49438,0.30487,0.11486,-0.28439,0.38519,-0.37503,-0.26657,-0.56179,-0.73529
-0.49133,0.49452,-0.24309,0.46382,0.30316,-0.14173,-0.34526,0.51627,-0.82578,-0.42118,-0.38026,0.33462,-0.58648,0.85956,-0.20921,-0.54068,0.29762,-0.8816,-0.64854,0.010738,0.84294,0.69445,-0.36439,0.21901,0.42082,-0.95675,-0.58089,-0.7675,-0.83301,0.96668
0.064306,-0.47055,0.77422,0.1507,0.30919,-0.73812,-0.61465,-0.061406,-0.35111,0.045576,0.66415,0.71975,-0.73759,-0.23873,-0.58514,-0.20782,0.91757,0.90317,-0.29405,-0.13361,-0.15534,0.88207,-0.87384,-0.32588,0.46194,0.43112,-0.42767,-0.16214,-0.47252,-0.078942
-0.37487,-0.79748,0.2961,0.41801,0.16513,-0.30929,-0.31546,0.79431,-0.75502,-0.20773,-0.66235,0.94557,-0.025462,0.68466,-0.54124,0.068227,-0.90657,-0.16092,-0.79056,0.67705,0.4848,-0.26095,0.91732,-0.74457,-0.11915,0.50959,-0.93315,-0.48378,0.53926,0.25004
-0.73601,0.7834,0.01799,0.93455,0.52485,0.8574,0.1982,-0.38143,0.73071,-0.079774,-0.90938,0.065657,-0.85131,-0.58827,0.1189,-0.66905,-0.74024,-0.37219,0.38133,-0.29303,0.94921,-0.98596,-0.35189,0.27096,0.10311,0.9248,0.27642,-0.37029,0.77856,0.63298
-0.39401,-0.663,-0.15903,-0.23308,-0.33653,-0.99927,-0.23527,-0.05402,-0.96333,0.67426,0.98151,0.66157,-0.70096,0.31013,0.29879,0.12223,-0.010505,-0.63252,0.97122,0.59536,-0.60177,0.91253,-0.35574,-0.97477,-0.92952,-0.88955,0.30013,0.16794,0.3997,0.41906
-0.78313,-0.93668,0.27339,-0.14033,-0.47585,0.0048044,0.75936,-0.70353,-0.47924,0.31625,-0.73811,0.74249,-0.53478,0.96642,-0.84304,-0.80814,0.5019,-0.52779,-0.56929,0.42454,0.87902,0.16302,0.23884,-0.83028,-0.96073,0.62188,-0.74854,0.89327,-0.3246,0.12913
0.3067,0.73255,-0.8743,-0.37118,-0.28284,0.42889,-0.46529,-0.4517,0.88294,-0.19825,0.56717,0.77111,0.28578,0.85338,0.51329,-0.98562,0.39981,0.023945,-0.62579,0.90047,0.7675,-0.00034951,0.1837,0.86992,0.76928,-0.64297,0.40914,0.6061,-0.11903,0.13584
-0.43025,-0.68906,0.89242,0.22562,-0.3235,0.96265,-0.65487,0.51655,0.021285,-0.25988,0.79373,0.74088,-0.61152,0.7553,-0.093554,0.50708,0.39049,0.52325,-0.50904,0.08724,-0.67894,0.98924,0.40618,-0.47812,0.41821,-0.63373,-0.93923,-0.70779,0.14138,-0.021237
0.94631,-0.36982,0.1072,0.424,-0.33072,0.70519,-0.23278,-0.94403,0.49126,0.064724,-0.037735,-0.66017,0.45564,0.7096,0.9821,0.12036,0.84043,0.083301,-0.65255,-0.64721,0.13621,-0.34374,0.092024,0.80084,-0.10452,0.48763,-0.92422,-0.75332,-0.63425,0.30009
-0.76324,0.32819,-0.99136,-0.73893,0.29921,0.54728,-0.3958,0.6785,-0.89353,0.57749,0.0030162,0.37384,0.11494,-0.15442,0.13139,-0.14659,-0.48287,0.63089,-0.70334,-0.48698,-0.7624,-0.99451,-0.73191,0.96339,-0.70669,0.75228,0.56834,-0.82512,-0.18216,-0.56148
-0.21223,-0.9072,0.85641,0.76519,0.18449,-0.32641,-0.72377,0.53268,-0.25469,-0.17368,-0.61718,0.35734,-0.35619,-0.12171,0.0060264,0.10165,0.41059,-0.37583,-0.66564,0.95821,0.70742,0.53779,-0.55546,0.25621,0.44097,-0.46589,-0.70506,-0.13974,-0.76581,0.5236
0.95926,-0.62795,-0.5163,-0.30511,0.72987,-0.7519,-0.18661,0.25034,0.44744,0.92679,-0.42101,-0.23549,0.24208,-0.031587,-0.5214,0.02734,-0.91074,0.5485,0.57173,0.34256,-0.5549,0.77098,0.091999,-0.25536,0.47158,-0.14359,0.68188,-0.0066368,0.52221,0.16483
0.11876,0.39337,0.29962,0.66887,-0.51689,0.91174,0.75189,0.029571,0.30754,0.89539,0.30272,0.51651,0.49715,-0.96966,0.86621,-0.73832,-0.72736,-0.24778,-0.70987,0.087379,0.22306,0.78418,0.62459,-0.22464,-0.11517,0.97978,-0.81456,-0.46622,-0.36177,-0.16292
0.55263,0.65597,0.42474,-0.99917,0.90404,0.081785,-0.12441,-0.36567,-0.66438,-0.54339,0.52927,0.1467,0.48645,0.75337,0.83602,-0.28661,-0.91275,0.9777,0.69866,-0.28649,0.87478,0.48351,0.28111,-0.2809,0.22024,-0.31641,0.3851,0.79661,0.38302,0.9321
0.52544,-0.0092647,0.71072,-0.30247,-0.63735,0.0052326,-0.13075,-0.62023,-0.82877,-0.63894,-0.1253,-0.56102,-0.87363,0.40488,-0.34665,0.97389,-0.75992,0.7545,-0.71089,0.35723,0.85021,0.37548,-0.70433,-0.63726,0.95385,-0.36798,0.011085,0.47033,0.096706,-0.23476
0.31229,0.50139,-0.60234,-0.95129,-0.068391,0.31881,0.11594,-0.60204,0.6035,-0.90695,0.25709,-0.53487,0.30461,-0.56185,-0.30601,-0.76391,0.056795,0.37526,0.18604,-0.079276,0.67886,-0.15461,-0.52701,-0.73317,0.75532,-0.22086,-0.48739,0.9041,0.58353,0.8566
-0.43942,0.67646,0.80527,0.0022108,-0.17455,0.20256,0.561,0.17207,-0.22437,0.032357,0.68351,0.37047,0.40823,0.27868,0.025824,0.068149,0.63012,0.7659,-0.35965,-0.70855,-0.076601,-0.4729,-0.43319,0.54044,0.34202,-0.79927,0.34508,-0.49301,-0.7975,-0.88332
-0.76039,-0.38744,-0.28618,0.81951,-0.098102,-0.54132,-0.87864,-0.771,-0.82095,-0.77347,0.57469,0.93314,0.45321,0.77457,0.46851,0.15732,-0.38569,-0.23106,-0.76583,-0.82874,-0.96314,-0.24321,0.84024,0.80674,-0.87542,0.36078,0.44172,-0.29838,-0.60896,0.81329
-0.73375,-0.74281,-0.61446,0.27152,0.46749,-0.67574,0.89131,-0.084067,0.97622,-0.14906,0.92712,0.25139,0.79213,0.19078,0.3033,0.33965,-0.94518,0.95345,-0.23957,0.72277,0.28549,-0.54098,-0.77119,0.19009,-0.63548,0.87664,-0.5754,-0.61028,0.9386,0.6254
-0.38892,-0.83443,0.24804,-0.022906,0.4242,-0.084839,0.99455,0.369,-0.104,-0.54727,-0.42761,0.42692,0.55521,0.79812,-0.027223,0.51063,0.8749,-0.217,0.74142,-0.7548,-0.29315,-0.10605,0.28365,-0.80005,-0.87812,0.87774,-0.7928,0.25675,0.89807,-0.70344
-0.77056,0.96378,0.77366,0.73303,0.67068,0.3888,-0.44617,0.43558,-0.74274,0.62497,-0.31278,-0.66992,0.074648,0.94878,-0.25996,-0.098705,-0.71665,-0.26456,-0.86582,-0.56837,0.64164,0.88503,-0.46712,-0.66592,-0.96118,0.16646,0.099573,0.62525,0.93079,0.69323
-0.84561,-0.072563,0.40143,-0.41943,-0.57644,-0.80515,0.3672,-0.085127,-0.70449,-0.22096,-0.3656,0.40893,0.029246,-0.51243,0.53794,0.094107,-0.60342,0.3246,-0.2708,0.74148,0.54569,0.70398,0.39091,0.95029,-0.6245,0.12936,-0.31043,-0.61819,0.34848,-0.51878
0.31872,0.62017,-0.016967,-0.89822,-0.96423,-0.43442,0.11899,-0.11144,-0.15274,-0.6627,-0.64652,-0.30994,0.96055,-0.40908,-0.80197,-0.14946,0.60879,0.8265,-0.86567,0.72766,0.56252,-0.93128,0.40027,0.17441,0.31566,-0.9382,0.51577,0.57979,-0.2634,-0.6694
-0.25003,0.22123,-0.29769,-0.26533,0.59357,-0.67223,-0.33029,-0.88118,-0.52571,-0.49289,-0.61756,-0.032056,-0.36771,0.91895,0.76185,0.18531,0.28665,-0.24533,0.86363,-0.99939,-0.23429,0.29371,-0.14423,0.75838,-0.50745,0.8042,0.6553,-0.89389,0.065145,0.51067
-0.46769,-0.46951,-0.30076,-0.46262,0.1561,-0.2172,0.30191,-0.27441,-0.1772,-0.15896,-0.70001,0.40309,0.53056,0.48203,0.02335,0.41802,0.4039,-0.96749,0.43501,0.030288,0.44384,0.86642,0.072075,-0.22108,-0.99131,-0.83686,0.93455,0.37012,-0.16466,-0.5227
-0.99183,-0.044916,0.50407,-0.41677,0.24191,0.48089,-0.5903,-0.84386,-0.1051,0.49167,0.7002,-0.41224,-0.27561,0.74916,-0.94672,-0.48062,0.0873,0.36384,0.54761,0.19907,-0.24402,0.12954,0.61393,0.5972,0.91188,-0.36365,-0.89767,-0.80052,0.52087,-0.52551
-0.9759,-0.012392,-0.05719,-0.82552,-0.29012,0.25987,0.78149,0.53902,0.79787,-0.51179,0.39953,0.69802,0.54882,0.12561,-0.49145,-0.39447,0.60184,-0.16656,-0.54759,0.21761,0.86571,-0.39443,0.74805,0.59207,-0.38035,0.36228,0.18815,-0.58876,-0.50116,0.68064
0.98303,0.35924,-0.17064,0.57743,0.9975,0.35907,-0.7363,0.55701,-0.26861,0.67574,0.3954,-0.78589,0.67485,0.97925,-0.32808,0.62413,0.2831,-0.0044118,0.54592,-0.24417,-0.64821,-0.82897,0.4559,-0.96,-0.59435,0.099508,0.34129,0.66853,-0.44583,-0.98423
-0.49196,0.54255,0.43287,-0.29331,-0.76078,-0.63133,-0.080698,0.40717,-0.92365,0.66214,-0.94833,0.090095,0.8677,-0.004801,0.97578,0.051887,0.89989,0.8602,0.38723,-0.55398,-0.53,0.19164,-0.78713,-0.12103,0.42398,-0.56653,-0.35443,-0.9228,-0.25875,0.99799
0.11967,0.77148,0.55465,-0.73518,0.86114,-0.9627,0.8724,-0.35294,0.64569,-0.092302,0.25544,-0.55734,0.76175,0.13004,0.30172,-0.52993,-0.71245,-0.0022316,0.72377,-0.09147,0.61362,-0.093335,0.34321,0.66606,-0.4975,-0.039769,0.12771,0.80305,-0.45779,-0.42559
-0.82382,-0.056575,0.38174,0.69932,0.46481,0.23473,0.51649,0.7155,0.1866,-0.56487,0.83046,-0.65142,-0.37585,0.25001,-0.58383,0.30132,-0.95006,0.037714,0.77173,0.42806,0.38955,-0.38104,-0.46759,0.53201,-0.92626,-0.33135,-0.47238,-0.96033,0.99625,0.055018
0.83798,0.28368,0.003444,0.49485,0.92496,-0.95412,-0.11322,0.70572,-0.86466,0.74366,-0.18457,0.28115,0.30995,-0.67256,0.6057,-0.30627,-0.11381,0.94221,-0.48338,-0.07123,0.83513,-0.6199,0.26696,-0.44335,-0.80573,0.67354,0.49429,-0.76294,-0.37569,-0.26983
0.77874,-0.58377,-0.40776,-0.16574,-0.23061,0.92376,-0.5867,0.21642,-0.74184,0.0036141,-0.77825,-0.58876,-0.31785,-0.98158,0.31669,0.42244,-0.65921,0.11119,-0.17821,-0.48556,0.17211,0.0139,0.95227,0.7462,0.79203,0.81898,-0.17064,0.72725,0.50045,0.05898
-0.1133,-0.78248,-0.90604,-0.62644,-0.53576,0.021614,-0.99302,-0.40631,0.083263,-0.67283,-0.51585,-0.94444,0.29345,-0.772,0.86522,0.52495,0.74015,0.83157,0.091245,-0.88318,0.012062,-0.45443,0.62195,-0.88518,0.4685,0.40681,0.21722,-0.6181,-0.61663,0.43372
0.75737,0.97782,0.34836,-0.018447,0.24207,-0.36257,-0.069834,0.89819,0.3943,0.55485,-0.63217,-0.81404,-0.00061618,-0.39902,-0.21677,-0.54327,0.99195,-0.35333,-0.15506,-0.12589,-0.94569,0.088189,0.89255,-0.75358,-0.13074,-0.59213,0.75083,0.63923,-0.51442,-0.10951
0.16977,0.19906,-0.041913,0.053003,-0.5539,0.43991,0.46337,0.0086964,-0.5974,0.45806,-0.55304,-0.52374,0.32839,-0.92708,-0.32807,-0.58043,0.75766,0.25965,-0.9994,-0.98281,-0.52468,0.26497,-0.21747,0.39198,0.5943,-0.28042,-0.95527,0.71408,0.018948,0.031796
-0.7104,0.44531,-0.38149,-0.38462,-0.51122,-0.074623,-0.23769,-0.82146,-0.20558,-0.97605,0.1099,-0.98584,-0.92004,-0.45956,-0.21918,0.062564,-0.23103,0.15165,-0.70844,-0.90725,0.12169,-0.84737,-0.69304,0.70532,-0.014588,0.47185,-0.49035,-0.76242,0.96434,0.013213
-0.14932,0.48628,-0.1351,0.97887,-0.3484,-0.30825,0.89572,0.33025,0.4301,0.23923,0.88659,-0.36516,-0.71479,-0.7705,0.14075,-0.39964,-0.018716,-0.95224,0.8439,-0.4294,0.08497,-0.97531,-0.83854,-0.32928,0.083945,0.32443,0.81873,-0.89596,0.46133,-0.041153
0.16904,-0.57334,0.97817,0.76393,-0.60876,0.1446,0.81907,0.51621,0.94365,-0.84912,0.9556,0.93153,0.78231,-0.88908,-0.8037,-0.46904,-0.017778,0.064084,-0.0093513,0.25566,-0.58325,-0.62306,-0.60886,0.61571,-0.52749,-0.35845,-0.38899,-0.56116,-0.17454,0.58327
-0.83256,0.9351,-0.092317,-0.25312,-0.53813,0.88267,0.91387,-0.75354,-0.10817,0.20851,-0.94442,-0.099501,0.79563,-0.11213,0.80439,0.10265,-0.2386,0.11259,-0.33008,0.73796,0.38373,0.63555,0.42002,-0.67971,0.46841,-0.78283,-0.95625,-0.59004,0.16151,0.39792
-0.42795,-0.5688,-0.16781,-0.50275,0.91623,0.21682,0.49088,-0.72955,-0.32244,-0.72007,-0.72188,-0.61546,0.52306,-0.66284,-0.1418,0.90714,-0.83479,0.96107,0.99486,0.90775,-0.35488,-0.84189,0.80886,-0.62415,0.40689,0.31855,0.84835,0.8897,0.50737,-0.13992
-0.90807,-0.40145,0.20532,-0.518,-0.62038,0.49542,-0.52809,-0.0084798,-0.77784,-0.26859,-0.15858,-0.062084,0.21272,-0.10149,0.59163,0.21444,0.35117,-0.17673,0.39933,-0.077919,0.0017452,0.75784,0.35879,0.44796,-0.29111,-0.7762,-0.041933,0.32646,-0.7637,0.75958
-0.52125,-0.5047,-0.84318,0.98693,0.23481,-0.98925,-0.44275,0.57222,0.53533,-0.73398,-0.84062,0.84869,0.9908,-0.79979,-0.2492,0.61587,0.97615,0.98677,-0.34103,0.37409,0.41214,0.75465,-0.79745,-0.80613,-0.31277,-0.91505,0.67296,-0.40905,-0.040926,-0.89745
-0.71475,0.2542,0.92817,-0.52649,-0.37894,-0.671,-0.70802,0.81989,-0.48246,0.89013,-0.82744,-0.28636,0.26717,0.14235,-0.015132,0.073282,-0.064271,-0.07613,-0.44282,-0.96191,0.94767,0.77889,-0.60952,-0.10254,-0.21729,0.11071,-0.85693,0.24462,-0.44823,0.24759
-0.19598,-0.52982,-0.91528,-0.27151,-0.58739,-0.57662,0.71161,0.8882,0.5018,-0.40449,0.4089,0.71505,0.63525,0.17002,-0.033592,-0.14341,0.11086,-0.49076,-0.96355,0.49661,0.7022,0.87435,0.48887,-0.88143,-0.79056,-0.69416,-0.34022,0.92774,-0.58603,-0.53287
0.99892,0.055307,0.60167,-0.69457,-0.9765,-0.76522,0.274,0.44948,0.23235,-0.20664,0.43524,0.20211,0.77348,0.17697,-0.86189,-0.46713,-0.39122,0.29029,-0.84311,0.68292,-0.91447,-0.59788,-0.37808,-0.37042,-0.27582,0.79972,0.36024,-0.54547,0.65142,-0.20563
-0.27351,0.5796,-0.28385,-0.088114,0.57989,-0.14922,0.5091,0.93456,0.72392,-0.9669,-0.89868,0.073899,0.14901,0.43222,0.0023862,-0.82121,0.95783,-0.083177,0.59672,0.6456,0.52804,-0.68689,-0.85079,0.35358,-0.79789,-0.88412,-0.41492,-0.3407,-0.19442,-0.96022
-0.69058,-0.40037,-0.13806,0.48317,-0.34857,-0.58559,0.15361,0.76064,-0.46132,0.1336,0.95833,-0.098473,-0.69438,-0.79008,0.64379,0.42613,-0.24135,0.78624,0.72227,-0.16457,-0.71284,-0.035659,0.77202,0.4732,0.5839,0.68054,-0.80298,0.02694,-0.38172,0.48123
0.60764,-0.086923,-0.2495,-0.056638,0.015503,0.69189,0.7765,-0.95858,0.58939,0.030412,0.46479,-0.77033,0.37539,-0.3173,-0.95392,-0.30321,0.56492,0.94633,0.87965,0.089263,0.907,-0.021955,-0.78303,-0.41515,-0.31756,0.32872,0.68986,0.49179,0.070269,0.65181
0.93605,0.90806,0.78073,0.050525,0.34816,0.84968,0.40187,-0.79287,-0.45587,0.79671,0.29687,-0.24157,0.3573,0.056667,-0.10418,-0.43976,-0.61303,-0.77934,0.6894,-0.59474,0.15111,-0.56684,0.91641,-0.20548,-0.9861,-0.806,0.57819,0.82372,0.11611,-0.71209
-0.67396,-0.15637,0.83171,0.99256,-0.59837,-0.47946,-0.68918,0.34673,0.7828,0.8519,-0.59771,-0.82644,0.066481,0.23444,0.010295,-0.5764,0.91377,-0.79972,0.82881,0.4199,-0.45588,-0.91371,0.053288,0.10659,0.77141,-0.21835,-0.056902,-0.63347,-0.35873,0.47555
0.88431,0.87754,-0.90562,-0.84447,-0.36974,0.041013,-0.3742,0.39564,-0.18238,0.073054,0.66207,-0.076306,0.90371,-0.51428,-0.28649,-0.95236,-0.12649,-0.33923,0.17821,0.2913,-0.93627,0.78264,0.019973,0.88284,0.66244,-0.85884,-0.70911,-0.0030387,-0.77178,0.81494
-0.64531,-0.6024,0.68973,-0.4086,0.10923,-0.9539,0.25682,-0.0077156,-0.82824,0.40599,0.1924,-0.48868,0.89401,-0.30378,-0.74545,0.039877,-0.026818,-0.09738,-0.60981,0.84878,-0.75235,0.31524,-0.034863,-0.33675,-0.5388,0.60163,0.28087,-0.79184,-0.29257,-0.70322
-0.93816,-0.81678,-0.51216,0.70065,0.72938,0.13442,0.28089,0.99394,-0.35077,0.6818,-0.98257,0.59128,-0.32879,-0.066469,0.55438,-0.0053898,0.67099,-0.4257,0.2878,0.77105,-0.91007,-0.86333,-0.1455,-0.46345,-0.020449,-0.54888,0.41365,0.94966,-0.15591,-0.94774
-0.77201,0.23397,0.8441,-0.084191,-0.40867,0.91862,-0.56238,-0.059135,-0.38541,-0.83013,0.097125,-0.31298,0.72822,0.48649,0.33844,0.34246,-0.32336,0.92744,0.87217,-0.95136,-0.063857,-0.29334,0.52326,-0.46507,-0.50719,0.95188,0.29377,0.72928,0.058418,0.5576
0.24656,0.45522,0.98862,0.1701,-0.92732,0.19058,0.64088,-0.60695,-0.77868,-0.067995,0.033202,-0.88875,0.2643,-0.3087,0.058577,0.4396,-0.60298,-0.31229,-0.3782,-0.87848,-0.55429,0.85697,-0.287,0.5449,-0.59319,-0.99765,0.96695,0.21085,0.16975,0.66718
-0.81585,0.8277,-0.82608,-0.071054,0.22148,0.68909,-0.36739,0.52528,0.94664,0.71542,0.53019,0.79418,-0.076178,-0.1137,-0.022339,0.26317,0.40713,-0.51473,-0.33115,-0.59479,-0.2079,0.88857,0.52969,-0.18128,-0.57848,-0.88641,-0.83732,-0.71953,0.81221,-0.76126
0.44394,-0.49944,-0.11481,0.067137,-0.39107,0.76862,-0.39498,0.16242,-0.61144,-0.16488,0.32752,0.98588,-0.37612,0.13421,0.697,0.3921,-0.58895,-0.90044,0.12984,0.26845,-0.54978,-0.4248,-0.10519,0.301,0.011583,-0.50651,-0.17018,-0.85154,0.064638,-0.42622
0.80875,-0.32999,-0.55782,-0.49625,0.42622,0.75607,0.78373,0.54485,-0.14367,-0.43981,0.85437,0.63497,-0.99653,0.73241,-0.94529,0.73242,0.79622,-0.76757,0.35301,-0.062849,0.69278,0.28523,0.53867,0.035767,-0.76921,-0.37164,0.26281,0.65615,-0.72577,0.70169
0.84019,-0.34581,-0.93609,0.60407,0.07462,-0.6099,-0.36047,0.30825,0.085645,0.60847,0.18284,0.24881,0.53808,0.97084,-0.19049,0.98701,-0.054959,-0.33799,0.56967,-0.093944,0.92568,0.70983,0.14855,-0.82941,-0.37437,0.48481,-0.47238,0.48737,0.87257,-0.075232
0.38675,-0.65227,0.25698,-0.53978,0.254,0.4683,-0.79755,0.048815,-0.27022,-0.60549,0.60966,0.28379,0.44154,0.74201,0.15035,0.41226,-0.75853,-0.52505,0.70679,-0.34497,-0.29868,-0.89942,0.33379,-0.55111,0.32325,-0.46819,0.44158,-0.52878,-0.47737,-0.63613
-0.070826,0.85363,0.31671,0.29395,-0.81707,0.61166,-0.43773,-0.79477,0.17151,0.60991,0.16717,-0.53682,0.83756,0.094704,-0.76316,-0.36842,-0.36871,-0.23886,-0.7734,-0.40645,-0.88077,0.077819,0.62766,-0.58287,0.8752,-0.07505,0.29486,0.22651,-0.27356,0.16046
0.69011,-0.61803,0.16121,0.78439,0.082302,-0.93708,-0.27523,-0.69296,0.93747,0.71293,0.018229,0.93685,0.57835,0.70737,-0.49938,-0.52655,-0.60971,0.89424,-0.52297,0.81527,-0.85024,-0.027386,0.44789,-0.98914,-0.52875,0.71122,-0.24388,-0.19755,0.20619,-0.90823
-0.051935,-0.76543,-0.11769,0.023795,-0.48141,-0.091952,0.051736,-0.81196,0.2869,-0.014011,-0.37428,0.72753,-0.35654,-0.91975,-0.86311,-0.92904,0.46492,0.44802,0.57607,0.77402,0.052246,-0.63439,-0.40659,0.088228,-0.32362,0.58839,0.87416,0.21358,0.44406,0.090458
0.46984,-0.70059,-0.34567,0.91755,0.49626,-0.93729,0.17016,-0.5739,-0.11432,-0.066463,-0.77187,0.62454,0.72169,-0.49392,-0.64162,0.49688,0.08577,-0.34039,-0.37017,0.75668,-0.48888,0.15279,0.94375,-0.67265,-0.050471,0.83003,-0.092423,-0.89014,-0.089025,0.37096
0.97087,0.54842,0.67666,-0.83928,0.72815,0.046815,0.50522,0.20592,0.83756,-0.099145,-0.54341,-0.34943,0.99745,0.91057,0.090732,0.73682,0.59283,-0.74141,-0.058925,0.61392,-0.17293,-0.1303,-0.93395,-0.13562,-0.025593,0.067573,0.61004,0.66133,0.59168,0.55996
-0.24586,0.1615,0.20092,0.1603,-0.65585,0.23455,-0.17167,0.080094,-0.15036,-0.48848,-0.89984,-0.11549,-0.21523,-0.39475,0.20545,0.39443,-0.83431,-0.27501,0.94484,0.59135,0.041416,-0.10546,-0.37761,-0.0026272,0.58924,-0.35005,-0.052673,-0.58067,0.85395,-0.32654
0.82647,-0.11341,-0.6143,-0.091428,-0.91337,0.46743,-0.12934,0.059688,0.55582,0.7092,0.3372,0.53265,0.17519,0.6432,0.27146,-0.85327,0.99268,0.99284,-0.25554,0.060546,-0.49949,0.33669,0.79129,-0.68495,0.83765,-0.26133,0.59319,0.54338,-0.20051,-0.3214
0.24147,-0.45008,0.17613,-0.15465,0.79908,-0.88185,-0.32311,-0.46173,-0.94131,0.080914,0.073445,0.32723,0.78881,0.13118,-0.020875,-0.32777,0.98409,-0.33067,0.36064,-0.33977,-0.59035,-0.57315,0.54566,0.1446,0.23923,-0.16294,-0.21945,-0.90088,-0.42933,0.16146
0.67642,0.26345,0.15755,0.060441,0.33587,0.41147,0.86861,-0.39256,0.22451,0.24316,-0.86618,0.098181,-0.72539,-0.86681,0.19008,-0.99711,0.14646,0.87489,-0.5563,0.079309,0.63325,-0.0057622,0.63614,0.14619,0.63711,0.38201,-0.16937,0.97305,-0.30638,-0.81964
-0.16354,0.42915,-0.43461,-0.59094,0.093341,-0.40399,0.055026,0.89047,0.79323,-0.031143,-0.62564,0.7373,-0.67274,-0.27073,0.060458,0.11767,-0.87573,0.55717,0.6722,0.15793,-0.12989,-0.11207,-0.94147,-0.66818,-0.51482,-0.11823,0.327,-0.97768,-0.73526,-0.46664
-0.97342,-0.8862,-0.8275,0.5426,-0.2839,0.87599,0.51786,0.33592,-0.0059962,-0.23348,-0.17719,-0.62064,0.39406,0.22353,0.43421,0.038529,0.21321,-0.8715,-0.79257,0.12162,0.67498,-0.31029,0.87163,0.92395,0.45978,0.9701,0.68179,-0.84575,0.89096,0.11742
-0.94853,-0.48261,-0.18491,-0.69379,-0.93709,0.75296,0.7145,0.56408,-0.444,-0.37195,0.38123,0.98776,0.54825,-0.74286,-0.6607,-0.61335,0.65721,0.79219,-0.71694,0.19259,-0.49428,0.61742,0.7948,-0.36682,-0.12567,0.27274,0.93166,0.23379,-0.81492,-0.82265
0.13347,0.64907,-0.70454,-0.21297,0.51666,-0.94362,-0.25029,-0.66071,0.62939,0.48454,-0.62521,0.61909,-0.64393,-0.47981,-0.97832,0.69857,0.71326,0.53729,-0.24639,0.65421,-0.22097,0.41358,0.56124,0.17013,0.013393,-0.92421,-0.28771,-0.65758,-0.27949,0.26312
-0.17194,-0.42389,-0.1663,0.22849,-0.97451,0.80822,-0.23613,0.47714,0.35988,0.85127,0.54819,-0.41763,0.32449,0.27241,-0.58452,-0.44188,0.64478,0.90006,-0.21425,0.00017678,-0.95714,0.76751,-0.68995,0.45975,-0.111,-0.24889,0.6243,-0.0065782,-0.13008,-0.10475
0.71157,-0.24872,-0.88685,-0.11181,-0.088922,0.92779,-0.70587,-0.94107,0.036988,-0.33358,-0.48974,0.42423,-0.071022,0.21332,-0.46862,0.21793,-0.093493,-0.54674,-0.48033,-0.20568,0.099028,0.21416,-0.47232,-0.0085696,-0.89636,0.15201,-0.17202,0.073595,0.96019,0.56473
0.019728,-0.56783,-0.084007,-0.89049,0.76275,-0.66135,0.62786,0.17149,0.578,-0.18451,-0.27682,-0.41478,-0.082309,-0.66524,-0.57764,-0.56518,0.88707,0.088544,-0.85404,0.30939,0.90471,-0.24521,0.0026277,0.11276,0.72529,-0.44997,-0.95822,0.90004,-0.03178,0.81114
0.93234,0.92389,-0.8392,0.068373,0.76723,0.76055,-0.46694,-0.26931,-0.10437,-0.31873,0.72902,0.66777,0.17251,0.10664,0.055052,-0.93359,0.79595,0.21331,-0.065645,0.52336,0.38698,-0.591,-0.26652,0.77102,-0.61536,0.4537,-0.13798,-0.30933,-0.88083,0.62738
0.44317,0.6234,0.12897,0.48606,0.031002,0.43014,-0.36837,-0.10596,-0.67041,-0.37973,0.89944,-0.47418,0.53014,0.10367,-0.72814,-0.66358,-0.4982,0.091189,-0.49217,-0.22294,0.62387,0.18304,0.54987,0.64949,-0.22266,-0.50745,0.76741,0.018018,0.99039,-0.63804
0.28757,-0.56439,0.39478,0.18553,0.8445,0.58271,0.12938,0.96354,-0.35989,0.67696,-0.52259,-0.89224,0.3983,0.11975,-0.69641,0.55594,-0.5145,0.85987,0.60737,0.19534,0.57861,-0.036116,0.08498,-0.26386,0.26904,-0.57706,0.80706,0.64329,0.38573,0.8939
0.092484,0.77355,-0.9166,0.26085,-0.64977,-0.59822,0.3274,-0.92235,-0.49968,-0.9034,0.64233,0.062625,0.28176,0.37031,0.078775,0.62007,0.24942,0.40859,0.54672,-0.235,-0.26974,0.18961,0.34378,-0.72202,-0.22535,0.92415,0.59965,-0.34945,-0.30568,-0.82891
-0.87951,-0.44659,-0.57264,-0.5423,0.99188,-0.58119,0.22659,-0.97374,0.66512,-0.011476,0.024457,-0.69029,-0.33226,-0.43833,0.29422,0.12061,-0.91947,0.88066,-0.75804,-0.34909,-0.30331,-0.92636,0.30033,0.11202,-0.47986,0.36217,-0.2159,0.0095048,-0.34625,0.34126
-0.76079,0.61444,0.16069,0.69221,0.60566,0.83482,0.45734,-0.59471,0.88866,-0.91295,-0.075716,-0.63855,0.72999,0.61846,-0.12152,-0.71975,-0.70113,-0.10468,-0.36153,-0.13592,-0.90846,-0.18644,0.33215,-0.60226,0.83632,-0.79837,-0.22959,0.5844,-0.48818,0.70054
-0.82014,0.046926,0.27387,-0.98688,-0.94651,0.53475,-0.60413,-0.48422,-0.4058,-0.22982,-0.22716,-0.25968,-0.36545,-0.80798,0.72305,-0.11259,-0.84661,-0.0064613,-0.81301,0.49079,-0.30063,0.21265,0.51444,-0.61217,0.28965,0.28941,0.80202,0.3135,0.63105,0.9861
-0.26112,-0.47084,-0.75211,-0.9163,-0.27898,-0.49153,-0.18212,0.83767,0.22584,0.96508,0.42144,-0.087209,0.65896,-0.77439,-0.10208,-0.71347,0.88192,0.84187,-0.96839,-0.76196,-0.62426,-0.76711,0.075643,0.5046,-0.45319,-0.73267,0.97256,-0.52352,0.049547,0.63581
-0.61839,0.5374,0.88196,-0.50731,0.43589,0.1681,0.36718,0.55547,0.31955,0.26549,-0.60164,-0.83339,-0.28205,-0.51601,-0.86624,0.47488,0.68878,-0.92284,-0.9474,0.55777,-0.55716,-0.50518,0.41967,-0.45892,0.69263,0.6753,-0.89594,0.8646,-0.98341,-0.78435
-0.58751,0.33443,0.51526,0.22242,-0.56903,0.24066,0.33515,0.23733,-0.9899,-0.07384,0.23507,0.17991,-0.80664,0.016586,-0.63225,-0.26806,-0.21384,-0.46652,-0.41054,0.89277,0.98544,-0.64307,-0.32046,-0.64608,0.61263,0.85239,0.87341,0.23165,0.51883,0.80897
0.39872,-0.40016,-0.61795,0.28824,-0.13915,0.23887,-0.5434,0.84296,-0.25885,0.56422,0.55272,-0.36245,0.46963,0.63082,-0.6488,-0.6004,-0.094343,-0.064519,-0.67597,0.47988,-0.55319,0.085873,-0.80005,0.6081,0.71386,0.18565,0.65442,0.2473,0.48224,0.29286
-0.87322,-0.61342,-0.6437,0.28607,0.20317,-0.28002,0.87375,0.36447,-0.40344,-0.30601,-0.18098,-0.90478,-0.56582,0.45304,0.5692,-0.28696,-0.010426,-0.022449,-0.85565,0.85445,-0.85726,0.53774,0.049818,-0.44592,0.025361,-0.18241,-0.53367,0.089069,0.19878,-0.82389
-0.0069607,0.43884,0.82085,0.9532,-0.28288,0.62759,-0.77181,0.92631,0.8468,0.09653,-0.7284,0.27141,0.094912,0.22193,0.939,0.71816,-0.34474,-0.70588,0.95428,-0.19381,-0.6257,-0.31073,-0.66266,0.45948,-0.12568,-0.33648,0.36109,0.061384,0.65353,-0.62555
-0.61017,0.95009,-0.54006,0.73984,0.90727,-0.55562,-0.16684,-0.45469,0.84817,-0.67288,0.16377,-0.52503,-0.55394,-0.96217,0.41847,-0.90726,-0.78984,0.15982,-0.82827,-0.284,0.058629,-0.8782,0.81787,0.94726,-0.39771,-0.018318,0.17171,0.69033,-0.29975,0.59227
-0.11211,0.21285,0.20575,-0.77619,-0.57208,-0.41091,0.66694,0.61923,-0.14861,-0.36607,0.15605,-0.63714,0.63532,-0.3672,-0.23074,0.44502,0.36446,0.47482,0.59314,-0.06469,0.93254,-0.65145,-0.29018,-0.55957,-0.36102,0.53145,0.20259,0.072494,0.98808,0.67116
-0.095725,-0.90776,0.46884,-0.61451,0.84784,0.80873,-0.53611,-0.35646,-0.75931,0.72719,-0.24243,-0.08523,0.2321,0.0090404,0.1683,-0.81443,-0.69593,0.47179,-0.023407,0.51725,0.3072,0.65043,0.92466,0.48574,0.43428,0.42511,-0.52951,0.39151,-0.68886,0.60319
-0.77157,0.40704,0.3927,0.81458,0.53497,0.269,-0.72268,-0.26117,0.31391,-0.94384,-0.36863,-0.95161,0.088382,-0.19332,-0.65361,0.95164,0.15148,0.079496,-0.52857,0.92964,0.43359,0.92484,0.11744,0.58774,-0.62994,0.98571,-0.9256,-0.29886,0.79648,0.94515
-0.20938,0.15303,0.26688,-0.26394,0.20735,-0.59213,-0.34257,0.95424,-0.60489,-0.61933,-0.56337,-0.9226,-0.071515,-0.075721,-0.83577,0.25062,-0.30876,-0.54341,-0.16852,0.27472,0.046882,0.12541,0.8179,-0.94721,-0.79939,-0.6422,-0.19575,0.74573,-0.16133,-0.24121
-0.38544,0.21392,-0.33152,0.09302,0.56509,-0.33861,-0.26033,0.78652,0.64078,0.28016,0.72817,-0.91577,-0.38477,0.20788,0.89646,0.49615,0.87796,-0.07801,-0.91891,-0.33449,0.24695,0.23027,0.62956,0.097949,-0.27584,0.37688,0.64359,0.61138,0.55599,0.031258
0.12904,0.21203,-0.85898,0.87198,0.96018,0.28304,-0.25877,-0.85692,-0.96809,0.20716,-0.81661,0.99044,0.89023,-0.5507,-0.442,0.048266,-0.73273,0.068314,-0.74323,-0.546,0.66153,0.98531,0.75527,-0.11608,0.54199,0.58254,0.50887,0.70249,-0.67133,-0.77095
0.58694,0.28423,0.10415,-0.31782,0.32503,-0.16268,-0.52861,-0.54556,0.19547,-0.45215,0.29742,-0.7042,-0.081821,0.03165,-0.80598,0.28436,-0.35978,0.36013,-0.75564,0.30385,-0.3785,0.88042,-0.78347,0.1925,-0.738,0.26108,-0.11987,-0.29932,0.49939,0.27605
-0.6581,0.4874,-0.044375,-0.89747,0.82125,-0.51712,-0.88041,-0.24725,0.23032,0.70096,-0.6286,-0.78711,-0.69497,0.878,0.48952,0.71495,0.95772,0.24669,0.048974,-0.018628,-0.18207,-0.19798,-0.32175,-0.37519,-0.31378,-0.76482,-0.56077,-0.67237,0.41855,-0.81724
-0.46772,0.93775,-0.82531,-0.43343,-0.7188,0.77447,0.58592,0.78867,-0.38746,0.11431,0.49064,0.857,0.21624,0.42771,0.15282,-0.63668,-0.73055,-0.88869,-0.77813,0.52242,-0.55108,-0.46902,0.6922,0.52543,0.65024,-0.43007,-0.77729,0.72486,-0.55621,0.11278
-0.54479,0.76727,-0.39285,-0.58988,0.30062,-0.56618,-0.13082,-0.68361,-0.20161,-0.5999,0.0079608,-0.63246,-0.079364,-0.18971,-0.86352,-0.86653,0.18975,-0.10516,0.35777,-0.61801,-0.94988,-0.0037216,0.74976,0.34454,0.82473,-0.61051,-0.82109,0.30352,-0.57554,-0.17409
0.34091,-0.80869,0.55975,0.74796,-0.61945,-0.20805,0.23035,-0.95101,0.71051,-0.078578,-0.95162,-0.35557,-0.0027045,0.90305,-0.71153,-0.81983,0.2854,-0.23838,-0.69856,-0.6247,0.40964,-0.33885,0.98922,0.6689,0.51116,-0.13554,-0.71588,0.7,0.65145,0.18001
-0.90265,-0.89665,-0.27277,0.22009,0.059797,-0.4315,0.66567,0.74626,-0.2674,-0.51912,-0.80275,0.24712,-0.12889,0.53232,-0.21903,0.090421,0.56383,0.70243,-0.041503,-0.93706,-0.29171,-0.871,-0.31632,-0.79695,-0.99872,0.71903,0.77836,-0.34858,0.46161,0.69888
-0.9186,0.24765,-0.8629,0.43291,-0.59747,-0.27414,-0.7106,0.056896,-0.75895,0.42668,0.59912,-0.43853,-0.46194,-0.053293,0.79283,0.088763,0.94803,0.079068,0.47684,-0.31002,-0.56754,0.41927,-0.5007,-0.77647,-0.22717,-0.10613,-0.62573,0.29614,0.27815,-0.17629
-0.028537,0.65586,0.84223,0.91631,0.12899,0.85305,0.96962,0.33948,0.031645,0.44511,-0.31582,0.90066,0.25873,0.091846,0.69535,0.13362,0.28116,0.30635,0.059801,-0.015423,-0.54708,-0.70307,0.19651,0.07559,0.5415,-0.47647,0.14079,-0.34264,-0.47159,0.24998
-0.61313,0.8449,-0.5631,0.32014,0.90071,0.18515,0.77212,-0.63748,-0.7104,0.058513,-0.3691,-0.64873,0.70687,-0.64899,-0.61324,0.86998,-0.33719,0.60863,0.42786,0.64058,0.086009,-0.53206,-0.61034,-0.98127,0.13793,0.57149,-0.57195,0.29926,0.53467,-0.48638
0.71055,-0.08706,-0.4177,-0.3688,0.22243,0.16633,0.46209,0.73606,0.22227,0.97044,0.32002,-0.94585,-0.83019,-0.71978,0.419,0.41302,-0.66332,-0.68882,-0.68962,-0.46326,-0.18761,0.7426,0.82868,0.34287,0.97008,-0.37648,-0.79634,0.5733,0.66999,0.77859
-0.93131,-0.29948,-0.80328,0.77928,0.86398,-0.48466,0.2465,-0.68323,-0.90807,-0.2854,-0.21867,0.32502,0.49977,0.55361,0.41733,-0.88706,-0.77711,0.13798,-0.0095164,-0.24179,-0.040437,0.1521,0.37688,0.45334,0.79988,-0.51728,-0.63489,-0.8844,0.83565,0.92043
-0.56154,-0.27311,0.63208,0.21919,0.16217,-0.64674,-0.071395,0.31302,-0.21001,0.22871,0.086176,-0.80062,0.52604,0.45041,-0.38116,0.34904,-0.85828,0.28934,0.3426,-0.0058947,0.8,-0.1523,0.31537,-0.87941,-0.77852,0.48386,-0.83776,0.81832,-0.80793,0.52505
0.92029,0.32312,0.56962,-0.55152,0.42462,0.75562,-0.52273,0.4077,-0.17245,-0.93673,-0.23818,0.57673,0.70849,0.86112,-0.053228,-0.28789,0.88705,0.62406,-0.76329,-0.29597,-0.48205,0.97218,-0.45822,-0.6928,0.62207,0.85654,0.032716,0.64357,-0.64527,0.96842
0.56617,0.40702,-0.028086,0.020884,0.53062,-0.86963,0.59729,0.64926,0.18891,0.47259,0.14384,0.74218,0.49562,0.79773,-0.29177,0.32542,0.23759,-0.35065,-0.43434,0.22946,0.97626,-0.42345,-0.58495,-0.85013,-0.84576,-0.55192,-0.69648,0.58777,0.58728,0.62949
0.25,-0.52454,-0.88307,0.095466,-0.56833,0.73054,0.49983,-0.95616,0.32392,0.69636,0.4717,0.27342,0.60003,0.6052,0.18165,-0.6341,-0.79986,-0.17149,-0.21601,0.5066,0.9698,-0.28528,0.34068,0.69415,0.83037,0.0086787,-0.51011,0.0098881,0.49786,0.97923
0.41772,-0.44765,-0.22541,0.3633,-0.90719,0.81748,0.19598,0.20052,-0.46163,0.26028,-0.53361,0.97633,0.51312,-0.94921,-0.76362,0.62238,0.98391,0.62904,0.37113,0.41628,0.61198,-0.54162,0.091753,-0.8293,-0.69301,0.47277,0.66148,0.30377,-0.89065,-0.15752
0.98485,0.3227,0.93603,-0.54408,0.40304,0.99149,0.32599,-0.10696,0.63343,-0.37199,-0.74514,0.49745,-0.75695,-0.35946,0.87407,0.47361,0.51063,0.87797,0.58789,-0.1276,-0.11362,-0.72231,0.95762,-0.14574,0.043435,-0.36818,0.80453,0.5305,0.32031,-0.002548
-0.081759,-0.13916,-0.018562,0.15408,-0.42104,-0.87257,0.67206,-0.12009,-0.16764,0.3277,-0.87963,-0.56598,0.055352,0.92503,-0.36456,0.091896,-0.35203,-0.94071,0.80039,0.13505,-0.62113,-0.52985,-0.63931,-0.022502,-0.16621,0.45657,0.14918,-0.25663,0.51838,0.81462
-0.37547,0.89773,0.71234,-0.99869,0.16073,0.032537,0.42131,0.26191,-0.99313,0.6701,0.77077,-0.27433,0.34447,-0.038044,0.92514,-0.3587,0.55244,0.97109,-0.45912,-0.9084,0.5627,0.25655,0.38421,-0.21316,0.56041,-0.43511,-0.089938,-0.61616,0.4172,-0.5377
0.82579,-0.89635,-0.2336,-0.92487,-0.89576,0.14508,-0.80074,-0.75267,-0.82905,-0.41805,-0.059102,0.45849,0.99295,0.98194,0.51615,-0.56965,0.95528,-0.16715,-0.70101,0.88469,0.9803,-0.56792,0.92533,-0.47283,-0.073602,-0.32456,0.31398,0.99417,0.73351,0.89701
0.85531,0.47739,0.59096,0.098658,-0.69853,0.55239,0.57257,-0.75826,0.35139,-0.031895,0.95103,-0.49598,0.65573,-0.93039,0.82472,-0.71476,-0.072372,-0.41992,0.4943,0.22861,-0.70246,-0.58613,-0.4383,-0.29055,0.16911,-0.42787,-0.56246,0.29243,0.64731,-0.64352
0.10893,-0.1001,0.7956,0.70535,0.73683,-0.14649,-0.20251,0.3403,-0.30164,0.56262,-0.88729,0.31252,0.44578,0.4432,0.70931,-0.50756,0.82264,-0.42778,-0.54597,-0.041775,-0.18222,-0.86866,0.95462,-0.98625,0.66958,0.83829,-0.83023,-0.49989,0.44352,0.069229
0.18802,-0.14921,-0.4134,-0.084627,0.53589,-0.22009,0.56876,0.29889,-0.53368,-0.091716,-0.13183,0.50036,-0.64567,-0.87408,-0.26727,-0.51308,0.098939,0.19723,0.55778,0.51239,-0.48884,0.59456,-0.92807,0.56468,0.95136,-0.10119,0.52961,-0.23135,0.11906,0.9145
0.7101,0.94691,-0.60581,0.87987,-0.6206,0.35654,0.033304,0.10147,0.16546,0.07591,0.12712,-0.10385,0.99885,0.49903,0.33411,0.061269,0.89256,0.81431,0.27396,0.83156,0.21486,-0.80309,0.66287,-0.86478,-0.6596,-0.19867,-0.67706,-0.22083,0.97615,0.98032
0.77689,0.80737,0.87201,0.26356,0.30569,-0.63632,0.25688,0.14828,-0.46114,0.41996,-0.62777,-0.4601,0.41719,-0.12608,0.84193,0.16002,0.025992,-0.98279,0.8057,0.5023,0.093068,-0.73597,0.18292,0.72632,0.77764,-0.028534,-0.19131,-0.55926,0.81988,-0.98554
-0.82243,-0.93794,-0.015012,0.46927,0.01919,-0.8358,-0.25653,0.45443,-0.23554,-0.077903,0.772,-0.25554,-0.59032,-0.2805,-0.71308,-0.68694,-0.68662,-0.22101,0.34965,-0.64634,0.22442,0.058695,-0.63565,-0.51742,-0.79328,-0.5199,0.10115,0.24271,0.87858,-0.69086
0.45431,-0.088921,-0.67551,0.2505,0.52889,-0.28235,-0.91083,0.92974,-0.35935,0.71287,0.43322,0.18981,-0.94856,-0.092683,-0.56605,-0.49398,0.26376,-0.01625,-0.60942,0.76874,0.48854,0.051251,-0.029488,-0.84376,-0.66123,0.94687,-0.27883,0.0434,-0.19447,0.66159
0.75055,0.25742,0.047762,0.59007,0.7768,-0.86069,0.50714,-0.62958,0.82848,-0.88242,-0.32589,0.086498,-0.75922,0.0022241,-0.98266,-0.12799,0.8266,0.084194,0.29288,0.61923,-0.78519,-0.65066,0.33995,-0.3687,0.32521,-0.67511,0.88109,0.79721,-0.95654,-0.067291
0.54621,0.64287,0.078753,-0.6602,0.9495,-0.86365,0.45251,-0.038009,-0.27583,-0.357,-0.79368,-0.79084,0.93416,0.74031,0.80937,0.11245,-0.37013,0.93128,-0.17997,0.57189,0.95494,-0.001735,-0.57496,0.29799,0.026379,-0.80764,-0.98805,0.82032,0.18334,-0.16143
-0.22059,-0.65326,-0.80075,-0.64791,-0.75618,0.10989,0.84811,0.068829,0.71619,-0.14737,-0.11117,-0.51105,-0.99474,-0.70408,-0.61275,-0.12768,0.067519,-0.11051,-0.49479,-0.10848,0.39427,0.073523,0.16956,-0.53044,-0.44506,0.020545,-0.15733,0.98848,-0.22416,0.63059
0.67925,0.24471,-0.01799,0.2241,0.9974,0.25155,-0.83129,-0.68741,0.081279,0.20159,0.29144,0.44595,0.57871,-0.18452,0.30689,-0.41798,-0.92993,0.66317,-0.69402,0.31259,-0.98855,0.28746,0.21402,0.8909,0.21465,0.63664,-0.58454,-0.40084,0.74972,-0.85084
0.51362,0.53119,0.47566,-0.98002,0.39848,-0.11596,0.98308,-0.92982,0.044579,0.59203,0.78487,0.63424,-0.1435,-0.25888,0.32729,0.13645,-0.85068,0.32495,-0.48343,-0.57539,0.72703,0.81431,0.51607,-0.3916,-0.41538,-0.94668,-0.0045268,-0.59575,0.5649,-0.8551
0.71658,-0.5428,-0.9885,0.47942,-0.46504,0.27724,0.73164,-0.51335,-0.93126,0.65676,0.19523,-0.73603,0.3675,0.080763,-0.45425,0.91291,0.96456,-0.46096,-0.21765,0.30628,0.35573,0.3462,-0.11786,-0.24257,0.11144,0.43254,-0.31741,0.032349,-0.31064,0.7669
-0.65643,0.35841,0.62573,-0.65074,-0.79439,0.56432,-0.24329,-0.12969,-0.13608,0.96964,-0.49262,0.51766,0.053339,-0.88793,0.91299,-0.21725,0.40894,0.020076,-0.094233,0.29375,-0.99059,-0.3269,0.64951,0.036204,-0.83592,-0.27601,-0.01195,0.51357,-0.61604,0.38375
0.87914,-0.88849,-0.60134,-0.88816,0.78826,-0.75895,-0.11698,0.1112,0.44977,0.33755,0.9224,0.66217,-0.65194,-0.86244,0.83679,-0.12053,-0.93772,0.61709,0.78342,-0.65373,-0.13198,0.16463,0.81121,-0.70181,0.91968,0.04634,0.53856,-0.080745,-0.24445,-0.64914
-0.2582,-0.35192,0.24775,-0.11579,-0.33329,-0.47603,0.66445,-0.50209,0.13192,-0.46431,-0.64862,-0.71873,-0.86317,0.19417,-0.39917,-0.77462,0.29785,-0.4463,0.13008,-0.33617,-0.54402,0.16996,0.029513,0.86888,0.14485,0.86312,0.45376,0.8928,-0.47424,-0.027256
-0.25657,0.15779,-0.2095,-0.54477,0.8591,0.87794,-0.60258,0.10568,0.65156,-0.78601,0.42595,-0.71958,0.83562,0.46873,0.92211,-0.31112,-0.048551,0.71218,0.8022,0.30785,-0.17683,-0.30381,0.9882,0.16339,0.92549,-0.48912,0.52662,-0.49051,0.6661,0.53182
0.57418,-0.0078473,0.2318,-0.23226,-0.97724,0.66326,0.13144,-0.81163,-0.69048,0.46193,-0.51584,-0.023205,0.74477,-0.80493,-0.60133,0.46932,0.33481,-0.97331,-0.26303,0.3562,-0.701,0.38509,-0.20453,0.15379,0.86762,0.82875,-0.378,-0.64978,0.26911,0.062687
0.59663,-0.13215,0.90548,-0.74001,0.69904,0.00059099,0.92519,-0.95718,0.50496,0.31299,-0.060555,0.65888,0.0039774,0.94331,-0.62637,0.97095,-0.68988,-0.035081,-0.86299,-0.75252,-0.50608,-0.15426,0.30658,0.23583,-0.10795,0.85839,0.94777,0.17674,-0.14504,-0.69384
0.59671,0.44397,0.024349,-0.19099,0.53032,-0.78496,0.27355,-0.76664,0.38819,-0.094453,0.58254,-0.14308,-0.90139,0.99924,-0.24758,0.89596,-0.30509,-0.85082,-0.20763,0.62131,-0.67685,0.23036,0.30396,0.21995,-0.58629,-0.096669,-0.37183,-0.20434,-0.053952,0.66421
0.48134,-0.6585,0.3734,0.92761,-0.38044,0.70837,-0.72093,-0.7251,-0.64023,-0.6978,0.96443,-0.061024,0.40893,-0.1889,0.15856,0.74103,-0.33675,-0.71206,-0.63972,-0.9299,-0.83288,0.88192,0.81227,0.77924,0.45018,0.30793,-0.91373,0.83971,-0.14246,-0.63356
-0.9907,0.61452,-0.95749,-0.65079,-0.62779,-0.40686,-0.34584,-0.92409,-0.37727,0.92769,0.33243,0.53724,-0.89955,-0.016371,-0.38879,0.044176,-0.206,0.27044,0.13715,0.81566,0.47165,-0.85999,-0.73384,-0.75479,0.13606,0.19091,-0.52676,-0.40945,0.5753,0.065173
-0.68018,-0.79384,0.65763,-0.7019,-0.62463,-0.47468,-0.83882,-0.16028,0.77066,0.60134,0.66384,0.085507,-0.75433,0.27931,0.99553,-0.58244,-0.044165,0.29707,0.471,0.044135,-0.35,-0.1719,-0.019433,0.25058,0.94996,0.98016,0.84709,0.38357,0.44009,-0.70733
0.2385,0.53644,-0.23795,0.57952,0.44123,0.46564,-0.82003,-0.45833,0.52843,-0.12715,0.17059,-0.5303,0.6649,-0.32528,-0.72559,0.042155,-0.36976,0.053956,-0.43103,0.40376,0.68292,-0.46528,0.43946,0.71735,0.29108,0.27579,0.95775,0.60672,0.14124,0.43413
-0.96021,-0.35033,-0.87242,0.26103,0.52421,0.063037,-0.58304,-0.49695,0.012174,0.025644,-0.48961,0.19252,-0.21532,-0.43843,0.40119,-0.46726,0.60912,0.71713,0.20516,-0.63619,-0.6263,0.22336,-0.71967,0.10829,0.33664,0.52491,0.71192,0.81964,0.39384,0.55073
0.46279,0.013442,-0.61173,0.21051,-0.75644,0.46946,0.13587,0.70594,-0.39909,-0.97964,-0.09397,-0.57146,-0.054658,0.2341,0.6747,-0.95189,0.81405,0.41661,-0.51123,-0.65757,-0.94809,0.39343,0.47331,-0.11255,-0.46013,0.55109,-0.063171,-0.076689,0.91757,-0.33885
0.5377,0.37951,-0.22154,-0.73915,0.50438,0.49554,0.95782,-0.64323,0.72121,-0.72316,-0.02655,0.4129,0.67953,-0.15262,-0.81216,-0.72099,0.12692,-0.070691,0.52767,-0.22994,0.83979,-0.85124,-0.92951,0.10998,-0.79259,-0.44323,-0.35563,-0.1058,-0.95005,-0.60078
0.77218,0.91894,0.20769,0.098548,0.49335,-0.079506,-0.94105,-0.23108,-0.59813,0.38157,0.73366,0.38617,-0.73198,-0.48466,0.48029,0.44241,0.84081,-0.15888,0.52243,0.58728,-0.13911,-0.77364,0.4562,0.48958,-0.28081,0.67132,-0.57589,-0.40575,-0.91127,0.24489
-0.79808,0.23379,0.30442,-0.54653,-0.70063,-0.84319,0.81006,0.58972,-0.12601,-0.7002,-0.93737,0.56274,-0.27823,0.26427,0.36277,-0.41493,0.31437,0.031005,-0.33838,-0.35444,0.82154,-0.34057,0.36146,-0.99804,0.62665,0.54963,-0.39478,-0.87752,-0.63536,-0.97543
-0.012874,0.31178,-0.67992,-0.6528,0.12421,0.86362,-0.74427,0.20878,0.97669,0.43126,0.0055713,-0.56233,-0.085541,-0.81854,0.78523,0.83633,0.2128,0.75018,0.9036,-0.60994,-0.90298,0.74606,-0.90515,-0.49236,0.14916,0.7795,-0.73579,-0.3104,0.87239,-0.81194
-0.97978,0.82325,0.45623,0.44765,-0.95829,0.72869,-0.52824,0.36127,0.80846,0.015866,0.0010944,-0.25476,-0.66027,0.68153,-0.12957,0.58635,-0.18751,0.78159,0.8542,0.51126,0.88008,-0.046672,0.54028,-0.01284,0.52825,0.30042,0.52397,-0.68484,-0.50361,0.54405
-0.58995,-0.98964,0.78932,-0.87818,0.75435,-0.030622,0.43338,0.19819,0.15636,-0.80183,-0.82715,0.74585,-0.25387,-0.94733,-0.74552,-0.70379,0.86746,-0.99614,-0.92298,0.22451,0.68931,-0.82115,0.87267,-0.18661,-0.64764,-0.81452,0.1521,0.13685,-0.28473,-0.23206
-0.34379,0.20103,-0.42118,0.24763,0.026135,-0.10232,-0.74945,0.13582,0.54069,0.11631,-0.56317,-0.59083,0.59995,0.35356,-0.81577,0.087739,0.79958,0.0028597,-0.87029,0.88599,0.71425,-0.42863,0.65871,-0.036963,-0.35627,-0.53008,-0.17858,-0.12473,0.043253,0.79392
0.33949,0.97525,0.51337,-0.26625,-0.64695,-0.47303,-0.64626,0.65673,0.52684,-0.50377,0.94755,-0.72714,-0.65026,-0.77491,-0.46908,-0.70986,0.97383,0.66048,0.037802,-0.4276,0.80775,-0.28145,-0.26209,-0.080898,0.80481,-0.19889,-0.84006,-0.34092,-0.40656,0.47758
-0.32674,-0.74438,0.67387,0.59943,-0.64396,-0.26392,0.86315,-0.19711,0.1188,0.52961,0.05913,0.84319,0.2127,-0.39815,0.37223,-0.20986,0.16808,0.11436,0.94765,-0.83306,0.12361,-0.42153,0.64982,-0.7549,-0.29344,-0.33446,-0.14817,-0.92059,0.50197,0.17029
-0.97886,0.90259,-0.34915,-0.84436,-0.25483,-0.16055,0.27009,0.36343,0.40011,0.65278,-0.89313,0.72278,-0.098402,-0.39091,-0.97827,-0.78187,0.37181,-0.07443,0.57644,0.66275,0.38749,0.19052,-0.46411,0.79147,-0.86282,0.17048,0.89647,-0.42873,0.80502,-0.13219
-0.1208,0.68352,0.61487,-0.506,0.76077,0.55132,0.41514,-0.46041,-0.028854,-0.57205,0.79727,0.81718,0.9881,-0.075819,0.80568,0.52963,0.49161,-0.12806,-0.0050633,-0.074974,0.51219,-0.90903,-0.61736,0.32837,-0.27957,-0.082167,0.011167,-0.43719,-0.44518,0.47031
0.95163,-0.38958,0.69738,-0.77203,-0.58253,-0.032047,-0.41284,0.89672,-0.046333,-0.18031,0.013365,0.82933,-0.81743,0.4995,-0.37988,0.30844,-0.68387,0.34362,0.53534,-0.48881,0.77213,0.41587,-0.0023901,-0.59484,0.55526,-0.74556,-0.036734,0.7187,0.37808,-0.72599
-0.053762,0.76031,0.29372,0.8948,-0.083259,-0.73862,0.5411,0.40456,0.48027,-0.22407,0.032484,0.85375,0.94197,0.15813,0.29006,0.95342,0.90769,-0.12166,-0.84717,-0.62822,0.14845,-0.18264,0.76604,-0.28349,0.98565,-0.16953,0.81541,0.54633,-0.13795,-0.28011
-0.14551,0.21781,-0.72242,0.98618,-0.75058,0.25164,0.64863,0.32252,0.49245,0.48788,0.73423,-0.71541,-0.83936,0.067864,-0.34258,0.14896,-0.6156,-0.53468,-0.21735,0.46196,-0.62367,0.87697,0.857,0.024475,0.48354,0.70158,0.14406,-0.53572,-0.03697,-0.64069
-0.16146,0.51201,0.50166,-0.21634,-0.66796,0.44298,0.1805,-0.79331,-0.59485,-0.033015,0.029816,-0.97058,0.70558,0.0095314,-0.56329,-0.00827,0.76774,-0.16111,-0.82329,0.93346,0.81906,0.94545,0.21005,-0.59956,0.721,-0.48784,-0.11042,-0.46505,-0.21377,0.48015
0.42884,0.49908,0.05966,0.25426,-0.65043,0.46419,0.77867,-0.7338,-0.83897,-0.41243,-0.78008,-0.94759,-0.12296,0.71897,0.43185,0.2273,0.46494,0.81797,-0.15308,0.86319,0.83626,0.37878,0.50836,-0.18436,-0.51542,0.39241,0.66646,-0.66533,0.21729,-0.65856
-0.80321,-0.72127,-0.96824,-0.13272,-0.31666,0.65355,0.69763,-0.479,0.41132,0.096741,0.1977,-0.78016,0.64854,-0.30574,-0.29268,-0.74426,-0.27881,-0.22749,0.57168,-0.21611,0.27586,-0.74475,-0.65296,-0.92077,-0.26625,-0.19772,-0.24019,-0.76821,0.74526,0.9833
0.78398,-0.60855,0.13352,0.441,-0.59535,0.80412,-0.36989,0.66662,-0.1059,-0.7569,-0.323,-0.9949,-0.44931,-0.11045,-0.10924,-0.2673,0.39888,0.57347,-0.40754,-0.80539,-0.057189,0.80074,-0.18561,0.37299,0.29032,0.61577,0.90611,0.036542,0.70309,-0.6249
-0.31992,-0.93189,0.27481,0.2689,0.85856,0.4851,0.95918,-0.14784,-0.30353,0.66715,-0.71905,-0.98566,-0.41778,0.35198,0.63845,0.35056,0.43844,0.0073832,-0.69639,0.60933,-0.40191,0.67964,-0.83702,-0.046328,0.54961,0.99942,0.20662,0.75984,0.78743,0.1521
0.49163,-0.079161,-0.060151,-0.66774,-0.29727,0.66445,-0.8314,-0.0010714,0.094432,-0.47988,0.029905,0.23589,-0.28608,-0.6834,-0.58315,-0.69587,-0.9226,-0.28175,0.31172,0.76064,0.39313,-0.4002,0.92334,0.76507,-0.91535,0.11756,0.0091268,-0.21432,-0.2756,0.13785
0.77716,0.58352,-0.60508,0.91581,-0.53373,0.64636,0.27719,-0.62666,0.85826,-0.46629,0.41572,-0.6353,-0.50677,0.075416,-0.95888,0.61737,-0.14286,-0.44814,-0.77106,0.88203,-0.79963,0.033204,-0.87948,-0.61815,0.64895,-0.18865,-0.31895,-0.79446,-0.34331,-0.2547
-0.21755,-0.11474,0.72673,-0.60991,-0.22326,0.13525,-0.16081,-0.53016,-0.22633,0.38649,0.57454,-0.53507,-0.62408,0.7048,0.3435,0.84918,-0.46415,-0.68021,0.56938,-0.71149,-0.46503,-0.65714,0.3724,0.25134,-0.8036,0.2004,0.40291,0.036166,0.10386,-0.71096
-0.20727,-0.53754,0.48522,-0.54919,0.1438,0.70271,0.93304,-0.84438,0.5224,-0.29407,0.29042,-0.85652,-0.44595,-0.91679,0.6654,-0.42614,0.22318,-0.31751,-0.37808,-0.49766,-0.96496,0.98571,-0.75155,0.71863,0.44675,0.53045,-0.63545,-0.26492,0.69479,-0.29017
0.25269,0.88901,0.7203,0.88219,-0.12664,0.99674,0.94863,0.7427,-0.89172,-0.6603,-0.0987,-0.10387,-0.90497,0.4746,0.11146,-0.027642,0.66461,-0.73384,0.26633,-0.93684,0.61982,0.23206,0.63016,0.36476,0.66581,-0.33984,0.4418,0.68231,-0.96653,0.31523
-0.83006,0.60726,0.27399,0.51397,0.18007,0.96528,-0.10978,0.78174,0.74298,-0.40687,-0.24781,-0.38443,0.51394,0.97903,-0.18526,-0.50676,-0.17041,-0.35406,-0.87734,0.7323,-0.30427,0.05957,0.79452,-0.43505,0.49567,-0.99815,0.21096,-0.27251,0.75633,-0.11724
-0.85597,0.15231,-0.17024,-0.6207,-0.41869,0.11137,0.33611,0.91668,0.43687,-0.32679,-0.39822,-0.1301,0.17729,-0.03659,-0.025486,-0.26827,-0.20237,0.73408,-0.66399,0.65508,0.91454,-0.84211,0.56391,-0.18782,-0.39651,-0.33582,0.93995,0.0021372,-0.17837,-0.99033
0.94982,0.026539,-0.61104,-0.81404,-0.41035,0.59027,-0.046164,0.72501,0.22386,0.71751,-0.45844,-0.31354,-0.84127,-0.90261,0.75973,0.36981,-0.25075,0.09106,0.12016,0.1722,-0.92228,0.47658,-0.78691,-0.29619,0.08842,0.56087,-0.59226,-0.73045,0.31955,-0.42628
0.15784,0.48885,0.74403,-0.3248,-0.11863,0.79404,0.43806,-0.35154,-0.87394,-0.062635,0.99923,-0.1278,-0.03274,0.91451,-0.18588,0.78127,-0.1778,-0.8944,0.053035,0.071355,-0.25418,-0.41059,0.27964,-0.28207,-0.65618,0.097257,-0.15304,-0.66851,0.1896,-0.49168
0.80307,0.50594,-0.67055,-0.65129,-0.63411,-0.037152,0.10314,0.49281,0.62701,-0.89097,0.14998,0.82053,0.37998,0.31779,0.31897,0.55379,-0.0439,0.82767,0.8177,-0.61129,0.89306,-0.74589,-0.90415,0.24736,0.36781,0.54611,-0.031043,0.97085,0.42052,-0.13908
0.67859,0.83852,-0.39533,0.73587,0.65722,0.88796,0.86892,-0.31908,0.62834,-0.089665,0.13068,0.73454,-0.38576,0.65287,0.061273,-0.13185,-0.68965,0.69816,0.98125,0.57775,-0.061612,-0.59429,-0.37507,0.67484,-0.07713,0.53817,-0.31131,0.27033,0.67958,-0.88078
-0.44136,0.83967,-0.17162,-0.51313,0.025276,0.5325,-0.26066,0.42174,-0.3104,-0.019882,0.92005,0.88155,0.002261,0.36671,-0.73245,0.32399,0.61337,0.50358,0.45545,0.695,-0.45494,0.97381,0.41409,-0.091831,0.88833,0.43321,-0.18243,-0.59553,0.90196,0.82826
-0.92031,-0.17267,0.17912,-0.53074,-0.75393,0.60972,0.65365,-0.59467,-0.41329,-0.29988,0.3485,-0.05059,0.22113,-0.7746,-0.97916,0.14116,0.61318,0.50762,-0.56739,0.087685,-0.318,0.98362,-0.74483,-0.16836,-0.26806,-0.74016,-0.73696,0.49435,-0.60782,0.25685
0.31958,-0.56625,0.94874,0.46641,-0.51824,0.78665,0.0026056,-0.44372,-0.2946,0.62538,-0.64219,-0.20923,0.0029623,-0.22996,-0.18322,-0.2981,-0.26731,-0.38114,-0.20546,0.92482,-0.63867,-0.64189,-0.19125,-0.46499,-0.086863,-0.66965,0.2864,0.22193,-0.61748,0.12251
-0.53489,-0.31489,0.22942,-0.37965,0.80962,-0.087242,-0.64569,0.14461,0.27149,-0.19773,-0.16803,-0.26469,0.53513,-0.043679,0.82526,-0.36041,0.38218,0.12768,-0.72309,0.4062,-0.55564,-0.34319,-0.29657,0.13023,0.52432,-0.22194,-0.42532,0.98887,0.56068,-0.26073
0.91266,0.84008,0.38634,0.11899,0.9563,0.025916,0.35571,-0.75921,-0.16402,-0.95361,0.28928,-0.54694,0.94846,0.15255,-0.96523,0.75026,-0.43545,0.18947,0.39741,-0.524,0.27178,-0.22244,0.13339,-0.26725,-0.23856,-0.077879,-0.90058,-0.45207,0.56208,-0.6834
0.48739,0.552,-0.43166,-0.24719,0.0099959,0.90396,0.21118,0.43281,-0.74937,0.61318,0.42269,0.97551,0.4788,-0.75005,-0.10625,0.87096,-0.91809,0.20587,-0.94013,0.080602,-0.28635,-0.23865,0.79211,-0.4567,0.044169,-0.24178,0.48659,0.67668,0.51618,0.090696
0.082346,0.09012,0.55336,0.52693,0.91157,-0.61946,0.45857,0.99785,-0.97532,-0.90813,-0.99641,-0.69073,-0.46492,-0.27621,-0.69779,0.9423,-0.81178,0.75708,0.23846,0.040869,-0.31899,-0.94296,0.61335,0.29833,-0.47029,-0.0008179,-0.13538,0.9249,-0.25926,-0.57456
-0.13573,-0.91418,-0.27812,-0.084412,0.71697,0.57392,0.13005,-0.60416,-0.26231,-0.76714,0.51143,-0.41179,-0.49645,0.74907,-0.14995,0.063489,-0.13482,-0.14136,-0.52256,0.24559,-0.32732,0.507,-0.53751,0.82561,-0.1072,0.9474,-0.43276,0.4302,-0.96955,-0.4615
0.38575,-0.12945,0.89183,0.3396,0.24393,0.45558,-0.0021814,-0.55485,0.58669,-0.70582,0.0055749,0.16148,0.56682,0.57049,-0.48712,0.75638,-0.64428,0.95938,-0.91373,0.29244,-0.76133,0.96017,0.10955,-0.26767,0.18547,0.49932,-0.6539,-0.80256,0.61518,-0.36815
-0.87243,-0.41511,0.96291,0.62873,-0.36751,-0.45594,0.88111,0.75607,0.21495,-0.7854,0.73185,0.46614,0.67976,-0.86943,0.044007,-0.50222,-0.077908,-0.056979,0.031336,0.93162,0.7716,0.3742,-0.72876,-0.98874,-0.75527,0.12284,-0.32048,0.19427,0.70395,0.56726
0.99198,-0.4613,-0.40415,-0.60888,0.46342,0.062998,0.55314,-0.23206,0.85612,-0.54303,-0.88473,-0.3223,0.53466,0.97628,-0.76824,0.061664,-0.78479,0.24272,0.09218,0.32468,-0.19631,0.68994,0.97931,-0.1175,-0.78416,-0.38978,-0.84678,0.20664,0.75637,-0.93963
-0.11985,0.22199,0.3644,0.0027763,-0.0081397,0.54393,-0.92741,-0.99829,0.85508,-0.23719,0.3577,-0.17181,-0.26661,-0.42576,0.59455,0.86657,0.50005,0.67,-0.38409,-0.3246,0.32661,-0.6676,-0.13749,-0.53915,-0.40422,0.044297,-0.12115,0.95313,-0.17049,-0.10243
-0.64332,0.30368,0.92236,0.015843,-0.64292,0.66868,0.72502,-0.35765,0.17859,0.29896,-0.84741,-0.24509,0.031575,-0.61496,-0.90296,-0.12413,0.12015,-0.56142,0.06494,0.8923,0.73653,-0.89506,0.55426,-0.82481,-0.57897,-0.98551,-0.7109,0.92036,-0.1322,-0.88608
-0.81219,0.31375,0.74309,0.20871,0.60053,0.1859,-0.61977,-0.87915,-0.95482,-0.78114,-0.5573,-0.43489,-0.10585,-0.34991,-0.19441,-0.96305,0.29081,-0.8591,-0.88163,0.86633,0.6056,-0.54733,0.13811,-0.86271,-0.12431,0.6096,0.18357,-0.21122,0.22725,0.015855
-0.54931,-0.076758,0.10396,0.087658,0.71757,-0.87002,-0.27733,0.11791,0.045393,-0.66965,-0.24999,0.095114,-0.902,-0.34937,-0.32229,0.71372,0.9775,-0.90093,0.34578,-0.9789,0.17525,0.28162,-0.43803,-0.43144,0.46783,0.21254,0.4088,0.11567,-0.099362,0.70634
0.56784,0.0064015,0.69575,0.27451,0.082201,-0.52715,0.72195,0.2638,-0.088139,-0.84667,0.086755,-0.5534,-0.99857,-0.76941,0.34532,-0.038322,-0.98393,0.80349,0.48583,0.88703,-0.66081,0.99004,0.42016,0.59597,-0.09519,0.53956,-0.75246,0.23039,-0.51117,0.86156
0.26668,-0.5462,-0.59969,-0.61726,-0.25133,0.026873,0.5507,-0.15309,-0.34345,0.61948,-0.79799,0.36397,0.85423,0.14551,-0.42016,0.14829,0.45029,0.18428,0.55633,-0.41297,0.83691,0.76981,-0.31351,-0.31638,0.33086,0.61665,0.29634,-0.085824,-0.19901,-0.85575
-0.96132,-0.94193,-0.11508,-0.91496,-0.14427,-0.17536,-0.34455,-0.94886,-0.81524,-0.12185,0.17484,-0.83829,-0.4641,0.85591,0.72264,-0.24647,0.039618,-0.056232,0.69724,-0.15184,-0.33532,0.44189,0.12819,-0.092117,0.13187,0.045622,0.45776,-0.29487,0.84968,0.66404
-0.42339,-0.50821,0.10146,-0.42068,-0.60576,0.94511,-0.27503,0.74266,0.046913,-0.6469,0.62045,-0.3564,-0.26263,0.93846,-0.99955,-0.053803,0.54384,-0.25204,-0.96285,-0.13749,0.38917,-0.46527,0.90253,0.3824,-0.4175,-0.46953,0.00074922,0.53232,-0.63326,0.94403
0.23742,0.53424,0.75951,0.397,0.077428,0.81421,-0.81916,0.22011,0.81839,0.28437,0.33894,0.37326,0.22034,-0.0038983,0.19066,-0.80535,-0.059246,0.48565,-0.17786,-0.91649,-0.29104,0.15711,0.53625,0.63122,-0.14511,0.20602,0.063963,-0.46068,-0.69115,-0.71948
0.29452,-0.18309,0.84049,-0.72321,0.94408,-0.41424,0.96146,0.72283,0.73616,-0.75337,0.44996,-0.52284,0.9509,0.027629,0.6713,-0.49356,-0.97459,-0.05941,-0.73805,-0.78546,-0.37567,-0.88856,-0.57981,-0.68979,-0.67844,-0.70708,0.0040507,-0.70443,0.94527,-0.18127
-0.30601,0.95625,0.74251,-0.94865,-0.19071,0.17251,-0.89504,0.2079,0.028792,0.57945,-0.4736,0.82089,0.15539,0.30227,0.36743,0.54195,0.31458,-0.23069,0.82828,0.31796,-0.70594,-0.48386,0.73923,0.23791,0.34896,0.11852,-0.68701,-0.51397,-0.32007,-0.31293
-0.23776,-0.96159,0.64891,0.57269,0.95186,0.26791,0.0030679,-0.97997,-0.5202,0.38528,0.65686,-0.69505,0.089451,-0.092755,-0.46623,-0.54422,0.40141,-0.10302,0.47773,0.96609,-0.91119,0.24941,0.42612,-0.5798,0.34801,-0.70597,-0.37923,-0.35666,0.44592,0.89917
0.44298,0.56923,0.058711,0.062293,0.68861,-0.82393,-0.43714,-0.75497,-0.3841,0.55278,-0.11409,-0.21908,-0.061569,-0.54568,0.24358,-0.24846,0.80906,-0.66965,-0.47802,0.20207,-0.23557,-0.38435,-0.6108,-0.25617,0.44314,0.34836,-0.85543,-0.43539,0.84629,-0.42043
0.47863,0.14566,0.56909,-0.776,0.75606,-0.39772,-0.56863,0.057926,-0.20652,-0.44351,-0.64495,-0.024943,0.13679,0.58265,0.34332,-0.95199,0.1359,-0.58139,-0.52216,-0.27136,0.45201,-0.77582,0.23851,0.40896,-0.14229,0.32396,0.03341,0.55424,-0.0030102,-0.65864
0.46163,0.31867,-0.25679,-0.0071199,0.85313,-0.24929,-0.14091,-0.13824,-0.76664,-0.22788,0.27028,-0.79736,0.59389,-0.96093,-0.78788,-0.49772,0.12518,0.11734,-0.68269,0.6988,-0.27359,0.841,0.17039,0.25919,-0.92414,-0.021758,-0.6859,0.61257,0.020846,0.22071
-0.20283,0.62046,-0.99687,-0.19047,-0.72077,0.86583,-0.41622,0.063687,-0.55527,-0.94714,-0.51315,0.009189,-0.47746,-0.36594,-0.89088,-0.49264,-0.17369,-0.12007,0.81951,0.48455,0.39806,-0.34478,-0.94582,0.11057,-0.14483,0.0095951,-0.64533,0.86694,0.11519,0.60544
-0.41041,0.97752,0.10691,0.51109,-0.63132,0.34466,0.87176,-0.18213,-0.83056,-0.024444,-0.053081,0.021691,0.37133,-0.6848,0.055424,0.43338,-0.15362,-0.29368,-0.57617,0.78808,0.39293,-0.16369,-0.52605,-0.94306,0.47672,0.3594,0.37895,-0.87738,-0.24239,0.66232
-0.49237,-0.79313,0.2315,0.5677,-0.14337,-0.39333,-0.7255,0.69173,0.98115,-0.15251,0.2138,0.060049,-0.40086,0.49781,0.098382,0.045923,-0.14038,-0.88155,0.52375,0.74059,-0.14992,0.78099,-0.45937,0.85816,0.76496,0.9562,0.25371,-0.59977,0.63201,0.32381
0.33568,0.89499,0.90204,0.60995,0.68804,0.55117,-0.95071,0.028213,0.17213,0.12156,-0.62208,-0.69092,0.39911,-0.49641,-0.64522,-0.15354,0.14185,-0.94157,-0.88352,0.94107,-0.97541,-0.59864,-0.85225,0.77353,-0.23415,-0.2851,0.44008,0.76953,-0.16395,-0.78705
0.55767,-0.94084,-0.19624,0.8115,0.90438,-0.11073,-0.49801,0.59209,0.26499,-0.18369,0.81651,-0.53173,-0.53223,0.39095,-0.54271,-0.034184,-0.95683,0.078241,-0.27933,-0.31246,-0.49996,-0.077639,0.40398,-0.93851,-0.42957,0.56821,0.16816,-0.40543,0.39906,-0.47099
0.69236,0.23801,0.9116,0.77768,-0.43176,0.74422,-0.6192,-0.9271,-0.60173,0.16911,-0.36899,0.23821,0.92259,-0.55499,-0.53783,-0.82192,-0.50386,0.44564,-0.89404,0.14463,-0.65519,-0.068602,-0.80739,-0.32075,0.42567,-0.15404,0.57461,0.55672,-0.73295,-0.4779
0.78488,0.022491,-0.0024694,-0.72802,-0.4296,0.81132,-0.46727,0.16083,-0.65825,-0.31376,0.89094,-0.38201,0.40695,0.12529,0.65035,-0.96579,0.71405,0.55649,-0.68764,0.40539,0.059477,-0.57638,-0.60343,0.93047,-0.843,-0.7139,-0.9796,-0.49107,-0.92526,-0.0070561
-0.49023,-0.22009,0.38239,0.44338,0.79747,0.83448,0.63631,-0.66103,-0.10146,-0.16729,0.80563,-0.57301,-0.63249,-0.93982,-0.0051123,-0.43885,-0.98666,-0.29068,-0.447,-0.26311,0.57028,-0.31339,-0.57358,0.91112,0.2922,-0.42154,-0.47632,0.62897,0.6388,-0.79167
-0.21946,-0.048556,0.25827,0.19743,0.069756,-0.75781,-0.58727,0.21177,-0.19435,-0.39534,-0.27636,-0.43472,0.95114,0.84794,-0.97477,-0.20385,-0.90526,-0.86158,0.29374,-0.24618,0.34905,0.52668,0.23799,0.4508,0.14472,0.64016,-0.30424,0.53459,0.3728,0.54291
-0.97915,0.34583,-0.85037,-0.15715,-0.069479,-0.71575,-0.58954,-0.39023,-0.78346,0.83397,-0.49227,0.087653,0.88054,0.81116,0.65485,-0.95325,0.74484,-0.96245,0.44878,-0.80748,-0.10196,-0.7426,-0.4651,-0.35827,0.85192,-0.042666,0.015978,-0.47419,0.081717,0.20803
0.13341,0.54846,0.20171,0.98345,0.91895,0.032262,-0.25372,0.21032,-0.65794,0.89156,-0.97776,0.4381,0.77288,0.075973,-0.62581,-0.77872,0.098286,-0.26521,0.83559,-0.65547,-0.15347,-0.96899,0.75807,0.85455,-0.71849,-0.32406,-0.47165,0.50293,-0.013963,-0.75642
0.0088356,-0.47873,0.44206,-0.41012,-0.68664,-0.42941,0.36051,0.89651,0.22223,0.75425,-0.45731,-0.92141,-0.68766,-0.85207,-0.47958,-0.77095,-0.74023,-0.92876,-0.96897,-0.71913,0.5116,0.75561,0.28496,-0.07352,-0.94591,0.63222,-0.73369,0.47032,-0.45626,-0.076326
0.1701,0.39738,0.64828,0.647,0.82463,0.0049705,0.45875,-0.8621,-0.0096678,-0.37025,0.039904,0.29599,-0.089873,-0.89142,-0.55249,0.059332,-0.94535,-0.75526,-0.21203,0.014289,0.47322,-0.69738,0.34599,-0.58603,0.91616,0.65075,0.24864,0.52761,0.15021,-0.51078
0.74769,-0.43168,0.71843,-0.37199,-0.032975,-0.89339,0.3692,0.00093846,-0.45936,0.89503,-0.96173,0.59855,-0.30523,-0.030384,0.92121,-0.25374,-0.15424,0.84605,-0.22764,0.084425,0.79263,-0.62497,-0.84726,-0.91304,0.14562,0.7515,0.54517,-0.90418,-0.97774,-0.85628
0.63771,0.99803,-0.61752,0.21358,0.37938,-0.057817,-0.43388,-0.26607,-0.39596,-0.0084767,-0.9987,0.78209,-0.39898,-0.77279,-0.89491,0.23337,-0.91491,-0.17819,-0.388,-0.75478,0.090437,0.89804,-0.68497,-0.32949,0.63516,0.85509,-0.87413,-0.66427,0.42288,0.18192
-0.86932,0.82855,0.21631,-0.38012,-0.29313,0.86022,0.6889,-0.32965,-0.98918,-0.36384,-0.38087,-0.16355,-0.91083,-0.16936,0.28172,-0.4523,0.32158,-0.96036,0.35439,-0.54649,0.99909,0.89609,-0.94197,-0.07391,0.43149,0.64547,0.18353,0.28591,0.56262,-0.36195
0.096049,0.087303,-0.037336,0.58039,-0.73574,-0.55557,-0.4978,-0.58105,-0.99795,0.55092,-0.67205,0.23148,-0.067833,-0.72025,-0.41456,0.36456,-0.82287,-0.68938,-0.32701,0.8143,-0.41542,0.11754,0.92913,0.55114,-0.9873,0.10809,-0.0707,-0.76958,0.47372,-0.56101
-0.50396,0.89953,-0.80985,-0.15019,-0.99836,-0.50494,0.35506,0.91031,0.037937,0.49693,-0.14031,0.70531,-0.64431,0.8869,-0.73224,0.85599,-0.48936,0.56086,0.5103,0.98196,-0.5972,-0.15077,0.41707,0.50879,0.92882,0.52458,-0.81349,0.029248,-0.11582,-0.22354
0.78414,0.20086,-0.54464,-0.97748,-0.28959,0.91479,0.94231,-0.7893,-0.51566,-0.96385,0.89865,0.27409,0.048367,-0.63914,-0.0066985,-0.59488,-0.69784,0.74676,0.091973,0.92581,-0.22274,0.409,-0.40458,0.021378,-0.42985,-0.092025,-0.20535,0.8583,-0.44299,0.10942
-0.87404,-0.016779,-0.57038,0.88899,0.41147,0.31632,-0.047059,0.32901,-0.8218,0.65335,0.35119,-0.080056,0.42885,0.65593,0.61199,-0.085826,-0.4748,-0.85177,0.88511,0.5634,-0.63932,0.70501,0.46517,-0.84537,0.29603,0.52079,0.2163,0.94184,0.4466,-0.62824
0.86812,0.28116,0.98447,-0.027905,-0.98807,-0.29758,-0.1392,-0.17351,0.26486,0.50749,-0.51559,-0.61328,-0.28114,0.72631,-0.45743,0.75923,0.62706,-0.90214,0.57105,-0.6937,-0.58982,0.41299,-0.76661,-0.23447,-0.62935,-0.48945,0.52806,0.0048192,-0.65919,0.41006
-0.7723,0.27351,0.60433,0.94929,-0.36694,0.88803,0.32112,-0.33358,0.62665,-0.40808,0.91486,-0.39124,-0.39159,-0.35195,0.51128,-0.84982,-0.084635,-0.51537,0.21623,-0.58233,-0.53136,-0.64242,-0.88135,0.48984,-0.096602,0.58644,-0.41414,-0.6255,0.11249,0.88704
0.43378,0.7629,0.55087,-0.232,-0.39143,0.21389,-0.99409,-0.32076,-0.99642,-0.90166,0.18719,0.094195,0.84374,-0.99482,0.16492,0.44834,-0.72246,0.0069566,0.35315,-0.042839,0.97016,-0.38945,-0.98705,-0.52959,0.66879,-0.10448,0.98523,0.52998,0.96165,0.47846
-0.30578,-0.048296,-0.068153,-0.041636,-0.0268,0.080101,-0.42206,-0.90197,0.57576,0.43268,0.4157,-0.58315,-0.9909,-0.77073,-0.092904,-0.15464,-0.018941,-0.33095,0.24696,0.65969,0.93986,0.47693,0.77881,-0.79466,-0.22715,0.42192,0.23766,-0.18917,-0.79085,0.39016
-0.64263,0.96475,0.53369,0.22602,0.16366,-0.39041,-0.5625,0.73056,-0.20965,0.59703,0.025881,-0.29798,0.41324,0.12384,0.97524,-0.72958,-0.20222,-0.56152,-0.41985,-0.87848,0.46982,0.66949,-0.44057,0.10954,-0.56556,-0.273,0.70039,-0.32772,-0.64552,0.19156
0.74078,-0.39864,0.49681,-0.68708,-0.87687,0.29683,0.33727,0.94875,0.39466,0.91613,0.20422,0.41384,0.057298,0.6213,-0.2795,-0.78167,0.54893,-0.36879,-0.98199,-0.93441,0.94424,0.073337,-0.8035,0.78503,-0.40285,-0.8084,-0.62861,0.30132,-0.95128,-0.80601
-0.76476,0.94395,0.43743,0.54032,0.41985,0.24481,-0.58331,-0.013358,-0.83493,0.56543,-0.51227,0.88348,-0.90767,-0.54053,0.73716,0.91645,-0.23743,0.019264,0.077477,0.45031,-0.66082,0.69523,0.92275,-0.3453,0.30278,-0.85594,0.098312,0.17296,-0.87874,0.097089
-0.82252,-0.98974,-0.83237,-0.28642,-0.52216,-0.52542,-0.52253,-0.82276,-0.38294,-0.79177,-0.30305,0.63171,-0.45658,-0.42467,0.4416,0.029945,-0.63004,-0.84792,0.75791,-0.88445,-0.26357,0.46537,-0.66264,0.31026,-0.33723,-0.90543,0.30798,0.011936,0.29904,-0.5312
-0.57771,-0.62261,0.17836,0.60468,-0.64174,0.8901,0.95977,-0.17284,-0.48386,-0.0097409,-0.2041,0.097329,-0.9688,0.72293,0.67997,-0.60087,0.39804,-0.10955,-0.64169,-0.33284,-0.16185,0.6971,0.0020595,-0.12256,0.3318,0.50876,0.17726,-0.27012,-0.63484,0.15061
-0.091381,0.47141,-0.79506,0.45676,0.40676,0.17008,-0.9313,0.55516,-0.61277,0.41085,0.42124,0.85727,-0.78121,0.73809,-0.50907,-0.94753,-0.64326,-0.31689,0.60661,-0.29278,-0.98807,-0.03935,-0.88166,0.63074,-0.8316,-0.093748,-0.02793,0.7714,-0.65985,-0.047772
-0.48869,0.64953,-0.62377,0.46914,-0.2427,0.31475,-0.73927,-0.87704,0.6557,0.54313,-0.41329,0.65568,-0.082318,-0.2509,-0.11638,-0.56096,0.61823,-0.54112,0.74687,-0.89249,-0.824,-0.91392,0.88932,0.75981,0.59771,0.37172,-0.63963,-0.13423,-0.11668,-0.79891
0.11778,0.60951,0.58613,0.95725,-0.79885,-0.33309,0.97058,-0.99521,-0.34779,-0.29182,0.22074,0.27752,0.59856,0.24918,-0.52285,-0.48647,-0.20096,0.92774,0.99404,-0.09695,0.53531,-0.25267,-0.27737,0.80589,0.17287,0.36375,-0.83185,-0.47056,-0.87437,-0.93826
-0.90644,0.69859,0.9928,-0.25753,0.11302,0.030943,-0.85682,-0.53991,-0.94221,0.49506,0.25275,0.51488,0.95745,0.52765,-0.95497,0.71705,0.62001,0.20402,0.9951,0.2596,0.34564,-0.0087422,0.44445,0.98434,-0.65782,0.57466,0.26849,0.26727,-0.57517,-0.68215
0.65561,0.66913,0.46369,0.084132,-0.66712,0.53115,0.05576,-0.21882,-0.55554,0.75752,-0.41847,0.58257,0.066484,0.075591,0.02393,0.82858,0.25397,0.77371,0.49889,0.014412,-0.79416,-0.055629,-0.067213,-0.52693,-0.1407,0.069365,0.22509,-0.31265,0.74778,-0.42215
0.9558,0.50464,0.30985,0.29607,0.83285,-0.59204,0.65041,-0.70301,0.68084,-0.014182,-0.9394,0.67739,-0.22929,-0.99925,-0.56327,0.093427,-0.9687,-0.077688,0.96729,0.65309,-0.22552,0.91814,0.087479,0.46645,0.42278,-0.052295,0.32676,0.054296,0.23671,0.40679
-0.023508,-0.23289,0.57025,-0.67104,0.206,0.98766,0.23417,0.42877,0.67257,-0.72248,0.97161,-0.53483,0.77215,-0.94957,-0.5272,0.99153,0.2988,0.33891,0.93475,-0.86005,0.64592,-0.1236,0.54045,-0.5082,0.43372,0.55677,-0.45158,-0.21523,0.52753,-0.69497
0.046118,0.57869,-0.29005,0.43988,0.04074,-0.44564,0.36259,0.23504,0.35437,-0.95481,0.85711,-0.052703,0.26287,0.95451,-0.77759,0.41602,-0.67647,-0.52852,0.45215,0.81826,-0.59306,0.56816,0.74822,0.66665,0.44406,-0.79969,-0.12238,-0.92418,-0.32108,0.73651
0.10019,0.79993,0.26513,0.75658,0.44761,-0.82683,-0.17422,-0.8686,-0.32386,-0.16492,-0.55777,0.69344,0.23332,0.084823,-0.80487,0.5555,0.87331,0.90695,-0.90866,0.4932,0.76082,-0.13414,0.64991,0.013218,0.51786,0.05429,-0.67349,-0.058673,-0.12751,-0.50296
-0.53504,-0.20756,0.13734,-0.34683,-0.74614,-0.16533,0.03771,-0.71569,-0.97514,0.034364,0.48783,-0.75099,0.47514,0.55889,-0.83949,-0.88539,-0.87127,-0.90647,0.91598,0.48999,-0.16276,0.46302,-0.60632,-0.68244,-0.80213,-0.16642,0.84682,0.25182,0.25449,-0.34662
-0.97471,-0.94504,-0.15321,0.035302,0.091479,0.69876,0.95075,0.74146,0.37842,-0.26795,0.69601,0.57533,-0.22028,-0.19266,-0.29359,-0.75729,0.83128,-0.50051,-0.91426,-0.59084,-0.83273,0.9954,-0.069203,0.76041,0.2012,-0.68079,0.67222,-0.27723,-0.23816,0.35277
0.88068,0.23617,-0.86282,0.94438,-0.054394,-0.54273,-0.78771,-0.20243,-0.42661,0.43716,-0.80598,0.0079051,-0.83861,0.60224,-0.084033,-0.72058,0.37851,-0.75791,0.96813,0.48538,0.93067,-0.37782,-0.29723,0.93947,0.284,-0.030818,0.2278,-0.92312,0.60506,0.90951
0.9878,-0.84711,0.26924,0.62066,0.80633,0.98377,-0.32982,0.91079,0.23256,-0.87108,0.8625,0.61353,-0.63297,-0.32206,-0.89393,-0.22758,-0.8265,0.39138,0.26641,-0.50759,0.23833,-0.082437,-0.66347,0.054632,0.29584,0.56297,-0.9498,-0.76788,0.88617,0.11012
0.55597,0.0010386,0.6379,0.73026,-0.65028,-0.76636,-0.83172,0.55809,0.27662,0.34246,-0.7066,0.9388,-0.15248,-0.069925,0.9753,0.44391,0.34053,0.21921,-0.19189,-0.90339,0.72593,-0.25134,0.046084,-0.67538,-0.35127,0.74384,-0.25134,0.054672,-0.57214,0.89544
-0.60919,-0.82226,0.60778,0.17345,0.98229,-0.87983,-0.99649,0.46502,0.92066,0.068829,-0.26205,-0.47703,0.12473,0.040691,0.94,-0.37822,0.85474,-0.012674,-0.57733,0.30004,0.84793,-0.76055,-0.68562,0.042748,0.22671,0.26749,-0.89791,-0.87778,0.12917,-0.41783
0.95557,0.31806,0.43189,0.10809,0.76777,-0.91502,-0.56707,0.60748,0.8558,-0.12417,0.67506,-0.42558,-0.78915,0.62517,-0.41542,0.94958,-0.52927,-0.39312,0.93866,-0.26635,-0.80078,0.042796,-0.39121,0.20191,0.24063,0.82985,0.54668,0.51066,0.76442,-0.6458
0.80709,0.80305,0.51603,0.64485,0.24549,0.88854,0.72955,-0.50723,-0.481,0.0056664,0.89398,-0.41818,-0.034738,0.91006,0.66309,-0.082178,0.62503,-0.74092,-0.88783,-0.25546,0.9299,0.65343,-0.5795,-0.83123,-0.47781,0.96355,-0.066755,-0.7432,0.64906,0.4904
0.85782,0.068214,0.40098,0.54698,0.28663,-0.3509,-0.21984,0.54936,-0.1511,-0.64451,0.97848,0.91884,-0.0604,-0.91185,0.017388,0.23396,-0.40935,-0.22822,0.27633,-0.50175,0.41712,-0.34744,-0.84394,0.99501,0.35438,-0.42143,0.15963,-0.75057,-0.7676,0.84745
0.78863,-0.12693,0.27475,0.43027,-0.89741,-0.059121,0.4978,0.90598,0.96586,-0.94899,0.57526,-0.3674,0.50311,-0.6245,0.90144,-0.15559,0.67302,-0.025471,-0.74158,-0.11997,0.034159,-0.29845,-0.21955,-0.71207,-0.7401,0.0042893,0.70023,-0.55844,-0.33331,-0.50974
0.43741,-0.22419,-0.91796,0.034232,0.9675,0.17794,-0.045308,0.93674,-0.61614,-0.086191,0.6349,0.074328,0.51856,-0.14172,-0.87395,-0.543,0.94863,0.85795,0.78147,0.77792,-0.52996,-0.46825,-0.18812,0.51786,0.78768,-0.42666,0.65016,0.047917,0.56006,-0.75096
-0.94106,-0.4139,0.83422,0.73579,0.4391,0.99962,0.36628,0.46468,0.46794,-0.63169,0.25341,-0.56084,-0.1315,0.040852,0.66215,0.6565,0.20635,0.12203,-0.087919,-0.69534,-0.17177,-0.4435,0.1393,0.9133,0.49814,-0.77722,0.82301,-0.21776,-0.090678,-0.78697
0.70744,-0.52915,-0.68357,-0.78691,0.25987,-0.89623,-0.90455,-0.66019,-0.96282,0.1769,-0.84025,-0.67582,-0.48483,0.62448,-0.67541,0.60273,-0.14357,-0.93945,0.93733,-0.23,-0.29654,-0.07517,-0.17542,-0.85327,0.2424,-0.03491,-0.96324,0.4976,-0.45291,-0.61763
0.39633,-0.34993,0.24955,-0.22829,0.60195,-0.40769,0.78115,-0.83148,-0.92336,0.55468,0.92817,-0.3267,-0.42921,-0.96335,0.15401,0.16177,-0.69179,0.50372,0.40725,0.21837,0.8307,-0.39119,-0.56621,-0.91938,0.33192,0.11027,-0.054657,-0.31409,-0.30353,0.019014
-0.209,0.83878,0.87246,-0.87389,-0.55795,0.19804,-0.98587,0.45802,0.18561,-0.42922,-0.2634,0.2531,-0.0061378,-0.39367,-0.39496,-0.27352,-0.58632,0.24336,0.21322,-0.74795,0.89773,-0.19887,0.46648,-0.52161,0.58207,0.76703,0.6404,-0.46359,0.14112,-0.58187
-0.27486,-0.86714,-0.95301,0.11269,-0.17966,0.38493,0.73076,-0.47978,-0.76463,0.68583,-0.99613,0.83689,0.37631,-0.45824,0.29497,0.040499,-0.32595,-0.11449,-0.71061,0.88261,-0.90659,0.21432,-0.30336,0.24141,0.41934,0.61112,-0.85166,0.76288,-0.42867,0.60566
-0.57876,0.28317,0.43031,0.4792,-0.42712,-0.45511,-0.02804,-0.80231,-0.66452,0.15942,0.50447,-0.1797,0.077845,-0.3844,0.32471,-0.76608,0.68121,0.76716,-0.8295,-0.629,0.35824,-0.93984,0.71991,-0.23897,-0.68582,0.84323,-0.60964,-0.94287,0.37469,-0.46782
0.81299,-0.11792,0.57352,0.87586,-0.36888,0.82087,0.34631,0.83316,0.5254,-0.42729,0.087028,-0.9354,0.64599,-0.7247,0.29625,-0.92721,0.5516,0.96422,-0.71078,-0.77297,0.95264,0.14707,0.015754,0.56172,-0.91232,-0.17167,0.25739,0.65123,0.94349,0.45918
-0.51756,0.78563,0.1903,-0.16686,-0.62472,0.92514,0.72404,0.064463,0.62019,0.21168,-0.86142,-0.1616,0.048445,0.48014,0.19252,-0.14002,0.85236,-0.8854,-0.12077,-0.81565,-0.37721,-0.54671,-0.66014,0.2702,-0.94166,-0.6993,-0.23201,0.40761,-0.95863,-0.54384
-0.42899,0.93352,0.64649,0.38249,0.46032,0.57804,-0.35444,0.10912,-0.39744,0.1391,0.67195,0.7135,0.88076,-0.34345,-0.40661,0.32841,-0.83728,-0.70864,-0.95674,0.55589,-0.90354,0.91203,0.58824,-0.078925,-0.57933,0.56111,0.80644,0.90557,0.84894,0.63546
0.14606,0.74464,-0.83353,0.05914,-0.95955,0.8554,-0.87841,0.38105,-0.23667,-0.90932,-0.19623,-0.80875,-0.73522,0.49122,0.69711,0.71834,0.86036,0.49172,0.90486,-0.052096,-0.21806,-0.10869,0.070999,0.99671,0.3075,0.82933,-0.041119,-0.46274,0.0053961,0.49112
-0.97272,-0.11212,0.91271,-0.90803,-0.73247,-0.37172,0.077988,-0.9166,0.21907,-0.0485,-0.83849,0.74057,-0.42972,0.28505,-0.060967,-0.72553,-0.071141,0.14335,0.44215,-0.52475,0.5791,-0.55819,0.72161,0.68251,0.02152,0.60372,-0.34902,0.24294,-0.82436,0.50646
0.43702,0.41367,0.076918,0.86676,0.84245,0.76135,0.17445,0.92831,0.41898,-0.6712,0.5914,0.36681,-0.90068,-0.23926,0.72868,-0.0092117,0.98355,0.14662,-0.13378,0.44494,0.16092,-0.92386,0.4535,0.28077,0.62807,0.14281,0.48703,0.97282,-0.5681,0.55936
-0.17178,0.24885,-0.52652,0.13343,0.14477,-0.29996,0.73703,0.37559,-0.071168,0.74773,-0.2563,-0.5094,-0.29833,-0.98916,0.95854,-0.76763,0.05709,0.45252,0.19818,0.98959,-0.59726,0.17429,0.96723,-0.11867,-0.47198,-0.39058,0.52865,-0.009132,0.75307,-0.51164
-0.05693,-0.63032,0.30983,-0.16915,-0.00021712,0.48986,-0.0058277,0.43495,-0.27217,0.9528,0.95278,-0.068077,-0.61963,-0.42148,0.66608,0.58729,0.68022,0.89541,0.67378,-0.6245,0.65792,0.39812,0.83537,-0.80184,-0.80887,-0.21466,-0.52537,-0.52211,0.57237,0.53195
-0.0044367,-0.013673,0.26456,0.53746,0.026826,-0.55853,0.28044,-0.27772,0.99109,-0.79391,0.7351,0.5823,-0.27841,-0.89564,-0.8759,0.1077,-0.50952,-0.37301,0.6097,0.18216,0.65024,-0.88213,0.10241,-0.56538,0.87881,0.39689,0.0043106,0.12508,-0.90189,-0.37966
-0.90897,-0.10651,-0.47628,0.26822,-0.76303,-0.074968,0.54965,-0.88684,-0.33278,-0.12859,-0.47475,-0.48996,-0.67432,-0.75774,0.2387,-0.24335,-0.44632,0.12591,0.32724,-0.98605,-0.89203,-0.6058,0.56626,-0.99331,0.15432,-0.012736,-0.40441,-0.44174,-0.32545,0.54373
0.94128,0.55289,0.4454,0.052336,-0.039189,-0.35119,0.093558,0.86303,-0.17446,-0.014053,-0.89123,-0.1681,-0.52591,0.098066,-0.53146,-0.45446,0.99617,0.63726,-0.24057,-0.82123,0.29075,0.374,0.020835,0.6875,0.31191,0.57521,-0.092907,0.42047,-0.8283,0.38595
0.0098495,-0.8645,0.15035,0.5315,0.1699,-0.41342,-0.21701,0.6585,0.032385,0.045067,0.37896,0.88239,-0.33077,0.31457,0.25673,0.4786,-0.070052,0.86235,-0.72907,-0.94147,0.98757,0.86295,-0.61638,0.53409,0.64058,0.2632,-0.028635,-0.037182,-0.97211,-0.68303
-0.3887,0.58369,-0.99564,0.86601,0.49745,-0.98105,-0.39314,0.80806,-0.3868,-0.029175,0.057706,-0.38149,0.071835,0.057275,0.88219,-0.87088,-0.088162,-0.95211,-0.61906,-0.63542,-0.70172,-0.17376,0.19031,0.61661,0.78281,0.25771,0.62938,-0.68028,-0.96648,-0.57511
-0.69574,-0.90281,-0.68353,-0.13924,0.91524,0.038416,0.94863,-0.88164,0.27442,-0.24407,0.76578,-0.98848,0.10625,-0.63237,-0.59516,0.93984,-0.59702,0.33196,-0.24154,0.61852,-0.84908,-0.68078,0.072748,-0.61515,-0.2794,0.90787,0.83133,0.7693,-0.22198,-0.68234
-0.17404,-0.55338,-0.9736,-0.58925,0.72849,-0.85434,0.383,-0.48452,0.41152,-0.22889,0.70546,0.010417,-0.86733,0.11067,-0.93806,-0.36529,0.60364,0.9656,-0.49598,-0.52162,-0.023914,0.36891,-0.68381,0.50934,-0.13696,-0.97732,-0.98118,0.21053,0.36288,0.073037
0.35726,-0.84829,-0.064563,-0.48745,-0.83558,-0.6418,-0.28326,0.59077,0.68721,0.99836,-0.10005,0.01425,0.3286,-0.52011,0.14159,0.083804,-0.09541,0.50732,-0.51512,0.0060346,-0.90402,-0.12167,-0.2532,0.3745,-0.18641,0.079446,-0.62634,0.58709,0.75807,-0.56894
0.88014,-0.020445,0.56695,0.19715,0.70326,0.78573,0.68808,-0.97067,0.8983,-0.92381,0.13036,-0.25237,-0.22276,0.1755,-0.62375,0.78919,0.83144,-0.52919,0.6557,-0.45086,-0.82496,0.14584,0.09524,0.16309,0.68066,0.67674,-0.6404,-0.95677,0.95756,-0.44928
-0.4997,0.33166,0.67638,0.16815,0.48123,0.16626,0.8895,-0.80775,-0.30966,0.036421,-0.66783,0.24922,-0.46476,0.96399,0.73694,-0.73727,0.63578,0.83822,-0.26755,-0.21602,-0.18196,-0.81095,0.081493,0.3227,0.47913,0.30425,0.0041094,0.93941,0.58879,-0.88926
0.29916,0.21414,0.10028,-0.15382,-0.085223,-0.91478,-0.12576,-0.81052,-0.13115,0.87254,-0.21713,0.57515,0.68362,-0.2254,-0.86511,-0.12012,0.38099,0.64853,0.21649,0.4123,-0.84987,-0.61603,-0.26245,0.47056,-0.91742,-0.078283,-0.61565,-0.0002652,0.51221,0.68809
-0.31516,-0.68161,0.073156,0.35483,0.95724,0.19998,-0.85161,0.11062,0.51623,0.54413,-0.18834,-0.46838,0.54371,-0.52241,-0.0028629,0.85577,0.10794,-0.94323,0.035967,0.81625,0.13742,0.31869,-0.47263,-0.46748,0.39699,0.87683,0.4642,0.228,-0.47758,0.054354
0.30641,-0.62245,0.52754,0.24025,0.76942,0.10098,0.99612,0.027807,0.75505,-0.71197,-0.27719,-0.23638,0.72087,-0.027652,-0.99808,-0.88601,-0.19912,0.90685,0.39652,-0.80511,-0.044352,0.12848,0.88552,-0.11327,-0.37672,-0.10661,0.05628,-0.9042,-0.020629,-0.21705
0.89538,0.36094,-0.21256,0.80989,0.24104,-0.34152,0.063073,-0.75047,0.58599,-0.50919,-0.93836,-0.087137,-0.88315,0.29409,-0.22764,-0.66479,0.20212,-0.54479,-0.36946,0.25985,0.9938,-0.8489,-0.48772,0.034138,-0.071872,-0.15839,0.9651,-0.33547,0.45549,-0.51023
0.167,0.28343,-0.34461,-0.58651,-0.53581,0.91507,-0.84309,-0.16815,0.88044,-0.71544,0.53803,-0.51785,-0.084427,-0.35687,0.70593,-0.67653,-0.25515,-0.55053,0.87734,0.81972,-0.47442,0.72673,0.95307,-0.19651,-0.74337,-0.26973,-0.95679,0.77528,0.47928,0.059426
0.89149,-0.58016,-0.55949,0.053494,-0.72113,-0.26445,0.1338,-0.024881,-0.3001,0.58004,0.87928,0.64531,-0.13224,0.3987,0.463,-0.74495,-0.40182,-0.54584,0.95336,-0.95606,0.35877,0.64839,0.024653,0.95675,-0.323,0.69699,-0.5996,-0.28168,0.85647,-0.87496
0.31009,0.1606,0.90624,-0.68985,0.92473,0.35093,-0.98263,-0.7967,-0.26934,-0.48804,0.90287,0.74787,0.74103,0.12048,0.47444,0.93241,-0.63468,0.96124,0.77771,-0.99396,-0.77033,-0.54346,-0.63535,0.93677,-0.55283,0.16528,-0.6016,0.14516,-0.56495,0.6947
-0.78384,-0.77524,0.85794,-0.41455,0.53194,-0.25082,0.62502,-0.72816,0.22957,-0.23843,0.19976,0.27093,-0.46796,0.27647,0.50489,-0.3227,0.096063,0.52169,0.65658,0.79435,-0.58554,-0.95557,-0.12971,-0.5391,0.41825,0.63062,-0.86559,-0.71084,-0.26526,-0.79482
-0.70866,-0.085419,-0.9422,0.20499,0.83666,-0.46331,-0.48625,0.78858,0.94297,-0.62934,-0.37758,0.76857,-0.4102,0.30639,-0.11031,0.35231,0.92435,-0.32018,0.86276,0.11645,-0.17062,-0.63634,-0.29871,-0.71888,-0.64843,-0.31244,-0.56205,-0.56858,-0.66948,-0.4697
0.84764,0.19206,0.88668,-0.59435,0.11376,0.75764,0.81042,-0.45184,0.39858,-0.64968,0.88183,0.33993,-0.50246,-0.73357,0.60393,0.14909,-0.38343,0.046932,-0.36759,0.44131,-0.86621,0.46875,-0.96711,0.74647,-0.9052,0.133,0.70632,-0.18035,0.16486,-0.15555
-0.89297,-0.0052179,0.41978,-0.29876,0.89711,-0.5269,0.81929,0.51907,-0.80081,0.52186,0.31358,-0.12598,-0.1155,0.45081,0.54272,0.22555,-0.80764,0.56228,0.15824,0.65317,0.021071,0.25694,0.46152,-0.58213,-0.23735,0.18479,0.73255,0.6294,0.43383,-0.52624
0.32261,-0.63579,0.64343,-0.29913,0.69971,0.20257,0.6083,0.26966,0.49237,0.044939,0.5983,-0.18756,-0.31405,-0.85989,0.5579,-0.3647,-0.13479,0.96105,0.92335,0.31395,-0.1759,0.32521,-0.8726,0.011866,0.83057,-0.80682,0.21224,0.74616,0.28174,-0.9856
0.23715,0.63519,-0.29199,-0.84905,-0.22674,-0.032213,0.18987,0.6035,-0.45503,-0.50561,-0.3654,0.06445,0.071423,-0.29769,-0.78968,-0.28154,0.4316,-0.9887,0.36868,-0.95077,-0.45111,-0.31891,-0.23758,0.056715,0.13843,-0.94509,-0.55402,-0.39244,-0.44819,-0.81385
-0.60529,0.044958,0.89518,0.1519,0.63524,0.04595,0.36907,0.24303,-0.18822,-0.20718,0.20322,0.23107,-0.16566,-0.45407,-0.56915,0.60335,-0.45253,0.27258,-0.0066935,0.64458,0.025344,-0.74835,0.9899,-0.27589,-0.019228,-0.13745,0.326,-0.36929,-0.8444,0.88479
-0.94887,-0.72789,-0.74297,0.65428,-0.34153,-0.57419,0.037844,-0.87431,-0.35859,-0.48086,-0.7494,0.20024,0.32583,-0.47284,-0.82879,0.027877,-0.94444,-0.75552,0.65774,0.4989,0.9848,0.33091,-0.36721,0.44119,-0.56629,-0.62282,0.52728,0.82978,0.2869,-0.71578
0.58699,-0.72378,0.66652,-0.91587,0.75184,-0.78559,-0.9315,0.02996,-0.38981,-0.69448,-0.060459,-0.42108,-0.58756,-0.32221,0.44531,0.4318,0.83309,-0.090078,-0.71261,0.16722,-0.45606,-0.04705,-0.66967,-0.58446,-0.89694,-0.37112,-0.6749,-0.67167,-0.39612,0.69648
-0.8362,0.142,-0.57202,0.72483,-0.39895,0.50405,0.011832,0.39342,-0.28965,-0.87513,0.73916,-0.856,-0.8789,0.27761,0.59787,0.19386,0.00020432,-0.7243,0.55849,0.82949,0.81407,-0.81552,-0.53619,0.98932,0.28647,0.25669,-0.11583,0.77912,0.61689,0.026301
-0.76892,0.22311,0.38969,0.66243,-0.080403,0.80375,0.31906,0.092774,-0.2769,-0.0019659,-0.92983,-0.75293,0.90404,-0.70349,-0.66798,0.61952,-0.9438,0.97616,0.81007,-0.46291,-0.15884,-0.58014,0.98005,0.94486,-0.27951,-0.071721,-0.042576,-0.42173,-0.20881,0.37918
-0.70904,-0.9647,0.0095916,-0.66776,0.16448,-0.059939,-0.49752,0.065768,0.77307,-0.42531,-0.4574,-0.055312,-0.71072,0.44616,0.099496,0.4006,0.70952,0.054823,0.69139,0.045925,-0.64833,0.55766,-0.43621,0.29159,0.062135,0.64233,-0.641,0.71731,-0.79049,0.19192
-0.63569,0.24581,0.28459,0.16891,0.37281,-0.1183,-0.51627,0.090612,0.2451,-0.4966,0.37382,0.11762,0.25406,-0.047634,-0.043199,-0.74829,0.87567,-0.86713,-0.014599,0.62033,-0.4927,0.75325,-0.91921,-0.45981,-0.12059,-0.20481,0.55174,-0.66416,-0.51651,-0.73135
-0.012142,-0.77594,0.44184,-0.70513,0.19993,-0.98525,0.85081,0.90009,-0.59908,-0.31077,-0.32989,-0.55902,0.60613,-0.83102,0.75821,-0.09116,-0.16701,0.17049,-0.33427,0.20188,-0.86775,-0.884,-0.12613,0.87661,-0.54761,-0.5649,0.52142,0.91291,0.65802,-0.23011
0.19575,0.93061,-0.56521,0.74605,-0.41817,0.49061,0.1775,0.17958,0.34144,0.90484,0.75626,-0.22506,-0.83543,0.11867,-0.2818,-0.75305,0.75578,-0.47264,0.43139,0.069526,-0.81527,-0.50319,-0.69829,0.8396,0.13194,0.58649,0.052897,-0.8629,-0.75625,0.19635
-0.47601,0.8038,-0.74084,0.6724,0.22081,-0.38286,0.24717,-0.17573,-0.8865,-0.14046,-0.86227,0.77572,-0.61696,-0.84908,-0.95134,0.9402,0.06698,0.97465,0.52945,0.0055946,0.70952,0.045996,0.0064471,0.37605,-0.44997,0.094757,-0.73031,-0.25567,0.3194,0.28487
-0.46973,-0.065188,-0.1351,-0.44734,0.60732,0.1198,-0.40549,-0.22975,0.65777,-0.67795,-0.19735,0.39238,0.72157,0.19789,0.85109,0.49978,0.222,-0.3166,-0.36207,-0.81523,-0.98951,0.39447,-0.034482,-0.38548,-0.32203,0.20814,-0.91923,0.65474,-0.18449,0.45871
-0.63036,0.55306,-0.68564,0.51242,-0.53487,0.59521,0.25362,0.84097,0.8509,0.42057,-0.71393,-0.17108,0.47918,-0.87808,0.965,0.38237,-0.5057,0.9084,0.045464,0.63162,0.9396,0.58259,-0.52382,-0.86615,-0.45513,-0.72919,0.4967,-0.9956,0.71588,0.45299
-0.46428,0.17085,-0.40662,-0.38615,-0.057883,-0.92428,-0.48112,-0.59107,0.81721,-0.96456,0.58788,-0.52333,-0.55489,-0.14886,-0.039679,-0.64339,0.40341,-0.57046,0.31697,0.69568,-0.90173,0.4234,0.034643,-0.59028,0.50454,-0.011679,0.984,0.1508,-0.96029,-0.45148
-0.7516,-0.44481,-0.69798,0.92421,-0.46212,0.27403,-0.53154,-0.5189,0.31186,-0.87981,-0.1257,0.9008,-0.69023,-0.56621,-0.3141,0.011151,-0.42888,0.80227,-0.65251,-0.72052,0.53505,0.78469,-0.58174,0.37815,-0.26502,-0.8631,0.82403,0.80296,-0.7006,0.70868
0.11722,-0.016589,-0.039557,-0.92955,0.044618,0.53256,0.57974,-0.71606,-0.44503,0.73101,-0.33483,-0.081614,-0.97647,-0.44251,-0.61266,0.030433,0.70719,-0.99426,0.37124,-0.84021,-0.54598,-0.9786,0.48114,0.24577,0.22596,0.44467,-0.79219,-0.49452,-0.36877,0.54169
-0.26448,-0.78714,0.27934,-0.019165,-0.93382,0.41386,0.56983,-0.90385,0.69987,-0.60355,-0.48385,0.14348,0.37835,0.32076,-0.85716,-0.43035,0.7307,0.66182,0.006829,-0.63971,-0.1509,0.86171,-0.33354,-0.79522,-0.92377,0.46315,-0.65502,0.65915,-0.20983,0.58441
-0.020956,0.0089942,0.94901,-0.70308,0.36148,0.62848,0.81966,-0.20792,-0.53105,-0.55068,-0.65955,0.26459,-0.37512,0.46234,-0.90056,0.64864,-0.98927,0.16391,0.8212,-0.84584,-0.4462,0.14262,-0.9447,-0.3197,-0.63967,0.55441,0.78022,-0.44079,0.78167,-0.33852
-0.52713,0.90486,-0.81364,0.89556,-0.41514,-0.32082,-0.013183,-0.68847,0.82492,-0.77155,-0.37317,-0.42717,0.4101,0.41114,0.45205,-0.79176,-0.97137,0.21173,-0.92112,-0.2207,0.98094,0.99492,-0.55047,-0.1392,0.53201,0.44412,0.90729,-0.31917,-0.79792,-0.67214
-0.19711,0.87226,-0.022136,-0.90764,0.37267,-0.31281,0.12277,0.67186,-0.20016,0.62971,-0.21798,0.67654,-0.0028848,-0.1723,-0.54718,0.42302,0.42765,-0.58756,0.045413,-0.4612,-0.21974,-0.041765,-0.47541,-0.99709,-0.21398,0.80577,0.20532,-0.95187,-0.61526,0.23204
0.05979,0.4547,-0.076693,-0.85357,-0.37147,0.48717,-0.39079,0.73933,-0.52577,0.9604,-0.4139,-0.66207,0.047846,0.061191,0.81384,-0.25666,-0.82946,-0.25652,-0.41594,0.26544,0.55171,-0.65561,0.7908,0.85541,0.86416,0.16337,-0.061981,0.26944,-0.29085,-0.090306
0.66922,-0.081177,0.77562,-0.42186,0.13485,0.020555,0.23328,-0.75987,-0.61522,-0.56342,0.67184,0.041712,0.55709,0.76842,-0.96893,-0.35476,0.85365,0.31312,-0.68434,-0.91239,0.71743,0.59052,-0.088473,0.021791,0.71601,0.19329,-0.53797,0.36393,-0.50968,0.93761
-0.12666,-0.52916,-0.12321,-0.85427,-0.58702,-0.95812,0.15444,0.22987,-0.45955,0.79617,0.63582,0.86023,0.67989,0.56452,0.79741,0.83565,0.083354,0.21544,0.18221,-0.59533,-0.81354,0.051586,-0.42051,0.62436,-0.18763,0.17767,0.58413,-0.87411,0.071017,-0.73469
-0.18862,0.40724,-0.086906,0.26792,-0.97523,-0.01364,0.013656,0.9912,0.82668,-0.65462,0.56685,0.39643,-0.026825,0.62214,0.00079954,-0.30332,0.76649,-0.052337,0.047912,-0.96427,-0.5968,-0.21153,0.57135,-0.54354,0.064393,-0.081248,-0.61761,-0.97785,-0.44382,0.65243
0.42262,0.80671,0.15773,0.65084,-0.65854,-0.32407,-0.86706,-0.33419,0.39873,0.64009,0.54685,0.97732,0.97913,-0.12277,-0.5507,0.076136,-0.79146,0.16123,-0.33636,-0.71954,0.23391,0.43349,-0.83237,0.87047,-0.1662,0.33118,-0.60544,0.070555,-0.12902,-0.23487
0.30053,-0.24202,-0.56022,0.76698,0.92554,0.8049,0.41295,0.07387,0.79687,-0.48355,-0.35146,-0.43093,0.396,0.63213,0.10917,0.10263,0.39136,0.09748,0.031614,-0.72916,0.2303,0.35726,-0.41853,0.85176,0.647,-0.61412,0.24776,-0.30713,0.53167,0.54441
-0.55471,-0.30537,0.43461,0.73521,-0.19948,0.33391,-0.33476,-0.31459,-0.23966,0.45301,0.12703,0.41156,-0.61911,-0.51872,-0.70818,0.79899,0.70117,0.90599,0.34515,0.31014,-0.49936,0.5971,-0.98176,-0.50895,-0.27287,-0.30916,-0.93972,-0.66205,-0.32701,0.55538
-0.20929,-0.18675,0.7189,-0.40855,0.1749,0.606,-0.23637,-0.69541,-0.75784,-0.73272,0.073036,-0.52478,0.70629,0.59587,-0.81321,-0.47254,-0.12894,-0.36426,-0.97945,-0.10588,-0.45336,0.91561,-0.75141,-0.69343,-0.92611,0.90689,0.99905,0.31009,0.40501,-0.62725
0.93072,0.86622,-0.45269,-0.74609,0.86628,0.9463,-0.99424,-0.044582,-0.038702,-0.14746,-0.41887,0.15244,-0.66791,0.22166,-0.052296,-0.76534,-0.47192,0.52771,0.76865,-0.24725,-0.91546,0.12772,0.87689,-0.3638,-0.044626,-0.96273,-0.24976,0.58665,0.54229,0.5632
0.54325,-0.63437,0.85205,-0.24673,-0.84256,-0.20699,-0.58649,-0.17902,-0.7315,0.027812,-0.35286,0.50372,0.24674,0.16118,-0.53665,-0.84162,0.025297,0.86635,0.051771,-0.85385,0.50403,-0.27961,-0.36034,-0.41418,-0.93328,0.14329,0.5483,0.20562,0.061636,0.25262
0.89384,-0.059471,0.51672,0.23903,0.1543,0.90603,0.78636,-0.40751,-0.22521,-0.64313,-0.18816,-0.60663,0.88219,0.10746,-0.55641,-0.26221,-0.15145,0.037514,0.6943,-0.056394,-0.013164,-0.64447,-0.17345,-0.23302,0.78675,0.37025,0.065596,-0.12181,0.91665,0.11328
0.14265,-0.9997,0.3186,0.82497,0.49934,-0.1125,-0.19385,-0.85008,-0.14778,-0.7389,-0.28622,0.30922,0.40865,-0.29187,-0.52096,-0.62163,-0.27191,-0.1938,-0.38559,0.41222,0.69089,0.60954,-0.17759,-0.79539,0.56062,0.30585,0.54833,0.10828,0.35947,0.5656
0.60937,-0.74025,0.74857,0.56403,0.32804,-0.42595,-0.8129,0.9334,0.99553,-0.014445,-0.99246,-0.68493,-0.13613,0.45269,-0.39228,0.69423,-0.32284,-0.73687,-0.18526,0.21495,-0.28187,0.29519,-0.18099,-0.22955,-0.74149,-0.22055,-0.2438,0.69728,-0.81814,-0.79732
-0.62484,0.60418,0.33079,-0.090013,0.22499,-0.10649,0.91654,-0.63167,-0.79597,-0.022063,0.73745,0.68132,-0.56504,0.78951,-0.76781,-0.68338,-0.20348,-0.83947,0.72235,-0.10692,0.24369,0.53792,0.53874,-0.064206,-0.2697,-0.68279,0.76284,-0.36396,-0.63233,0.023618
0.24434,0.33026,0.69992,0.44398,0.82527,-0.99742,0.50805,0.1491,-0.90559,0.3824,0.040009,0.75486,-0.66004,0.86396,-0.95516,0.80007,-0.47897,0.69556,0.18515,0.53718,-0.26408,0.064277,-0.92162,-0.3889,-0.91681,0.35613,0.93397,-0.41795,-0.44596,0.31928
0.42023,-0.54975,0.57382,-0.2854,0.31692,-0.38085,0.68288,-0.96985,0.9308,0.84572,-0.0089978,0.098456,0.41194,0.59492,-0.04632,0.82432,-0.78028,-0.39808,-0.71422,-0.3826,0.17165,0.57603,-0.50077,-0.060825,-0.059859,0.39996,-0.85335,0.69363,-0.18144,0.61006
0.9745,-0.54528,0.00073128,-0.95192,0.34093,-0.39777,0.67177,0.73289,-0.57829,-0.32117,-0.16595,0.44438,0.19296,0.12337,-0.93252,0.64023,-0.30955,0.5163,-0.41724,0.7048,-0.48881,0.96398,-0.69287,0.70693,-0.032173,0.021169,-0.85,-0.34431,-0.72216,-0.62668
0.73134,0.90234,0.070599,0.50822,-0.55907,-0.42404,0.52802,0.11015,-0.92644,-0.031061,0.42346,0.04453,0.079586,-0.16187,0.17075,0.39701,-0.98881,-0.2439,0.65719,0.26236,0.46077,-0.50166,0.65784,0.54116,-0.2879,0.20887,0.76216,-0.64479,0.81055,-0.19566
-0.99809,-0.022005,0.65589,0.51137,0.11434,-0.92048,-0.81373,0.34239,-0.053735,0.699,-0.059481,0.67146,-0.93449,-0.70442,0.8196,0.15368,-0.2378,0.86879,0.026213,-0.095012,-0.85858,0.18608,-0.1494,0.29141,-0.99235,-0.824,-0.52937,-0.38135,0.63587,0.74039
-0.43316,0.33997,0.57982,-0.47682,-0.92752,-0.11706,-0.094213,0.94098,-0.49797,-0.38441,-0.056903,-0.43229,0.40513,0.69588,0.11497,-0.80889,0.24529,0.3236,-0.078356,-0.6929,0.5503,-0.32488,0.69569,-0.42244,0.36122,0.74962,-0.46748,-0.98708,0.058241,-0.24778
0.71611,0.81335,-0.89838,-0.92453,-0.64294,0.63778,-0.18188,0.76105,-0.63137,0.83983,0.34203,0.72407,0.50459,-0.8833,0.60522,0.95036,-0.062706,0.074074,-0.54444,0.64425,0.1172,0.8131,0.75461,-0.12709,-0.16112,0.55662,-0.66634,0.66853,0.28193,0.54349
0.92859,0.76429,0.98132,0.6778,-0.30809,0.62645,0.086187,-0.79727,-0.90744,0.54417,-0.051011,0.33261,0.46828,-0.61879,0.76476,0.11289,0.46354,-0.011715,-0.79937,-0.73277,0.7498,0.78589,0.0014208,0.45172,-0.40688,-0.46264,0.062785,-0.16375,-0.64533,0.2371
0.97289,0.89449,0.57089,-0.38891,-0.46124,0.43062,-0.24261,0.89708,0.22306,-0.94559,0.10028,-0.094383,-0.92708,-0.98766,0.67486,0.41102,-0.34375,0.56088,-0.72426,-0.80753,0.37508,0.75875,-0.70319,0.24048,-0.41265,0.3631,-0.45968,-0.59899,-0.37796,-0.35215
-0.95451,-0.17934,0.93784,-0.091985,-0.38726,-0.34244,-0.80597,-0.23326,-0.42476,-0.60162,0.36798,0.05657,0.68171,0.96138,0.29006,-0.44428,0.43747,-0.60757,0.089043,0.80135,0.75755,-0.13193,-0.3676,0.044226,0.56476,0.20757,-0.55763,0.47671,-0.87063,0.61718
-0.12296,0.1253,0.30486,-0.10183,0.044715,-0.59542,0.64221,-0.46349,-0.90332,0.62593,-0.35294,0.75984,0.69552,0.21268,-0.26946,-0.73137,-0.05242,-0.41079,-0.36812,-0.83757,0.96129,0.40185,0.47626,-0.90441,-0.27751,-0.91105,-0.89331,0.45828,0.17296,-0.44256
-0.94515,-0.072342,-0.58028,-0.13356,0.77407,0.53026,-0.68697,0.92099,-0.72832,-0.72093,0.46119,-0.52446,0.53973,0.55174,0.50213,0.84775,-0.79028,0.38239,0.64972,-0.48554,-0.057912,0.29264,-0.36427,0.92146,-0.27578,0.68668,-0.55968,-0.97647,-0.4421,-0.7723
-0.01538,-0.65986,0.058039,0.29194,-0.055045,-0.051419,-0.99258,0.27622,0.19696,-0.85408,-0.10863,0.8022,-0.47905,-0.58144,-0.61492,-0.15899,-0.5259,0.025076,0.13841,-0.26116,0.90646,0.86042,0.83271,0.15747,0.26491,-0.58765,0.47825,-0.26534,0.94815,0.41962
-0.023615,0.68779,0.51695,-0.24832,-0.76749,-0.64723,0.32339,0.041894,-0.083213,-0.77358,0.24414,-0.20129,-0.24858,0.36003,0.80445,0.48087,-0.97137,0.63923,0.96355,-0.6681,0.39094,-0.26128,0.067729,0.91799,0.048452,0.95137,0.88327,0.92814,0.99142,0.72004
-0.87075,-0.037515,-0.49342,-0.18137,0.51617,0.48743,-0.2819,0.95687,0.55876,0.98612,0.52759,-0.94442,0.15527,-0.095731,-0.22841,-0.66903,-0.030448,-0.009507,-0.75021,0.52121,0.012746,-0.44038,0.37317,-0.17803,-0.42047,0.055908,0.64768,0.87608,-0.55549,-0.90276
0.57816,-0.67141,0.80016,0.52278,0.74337,0.94119,-0.91019,0.65032,0.48195,0.49978,0.22058,-0.93865,-0.92347,-0.46522,0.94318,-0.12123,-0.92718,-0.067042,0.48004,-0.26546,-0.87198,-0.99968,0.07043,-0.98267,0.60917,0.7921,-0.34064,-0.71688,0.54664,-0.031716
-0.76353,0.54991,-0.12817,0.54057,-0.62447,-0.0234,-0.030125,-0.54681,0.56377,0.10424,-0.0059485,0.22158,-0.79337,0.34333,0.08101,-0.29886,0.65269,-0.17534,0.82146,-0.20909,0.81567,-0.14194,-0.78286,0.32919,0.88764,-0.11139,0.32457,0.11,0.59823,-0.39465
-0.71311,-0.46239,-0.96309,-0.66049,0.79875,-0.54644,0.87777,-0.056144,-0.71973,-0.45713,-0.18308,-0.31723,0.23241,-0.83533,-0.57996,0.57513,0.75972,0.82915,0.40572,-0.81812,0.99299,0.40724,-0.69045,0.14404,0.37095,-0.68816,-0.26729,-0.87633,0.37209,-0.18432
-0.46652,-0.22756,0.080846,0.10103,0.58336,0.37314,-0.91804,-0.75566,0.31236,-0.79196,0.51759,-0.7784,0.64997,0.36082,0.72663,0.87269,-0.64247,0.87002,-0.7846,0.32473,-0.68476,0.27538,0.15481,-0.58986,-0.80737,-0.089774,0.79159,0.018693,0.69079,-0.33724
-0.73141,-0.30459,-0.87558,0.22691,-0.10184,-0.3811,0.59027,-0.024823,0.90361,0.55523,-0.44159,0.64162,0.14152,-0.99425,0.65706,-0.053637,-0.055278,-0.91165,0.69442,0.29411,-0.97905,0.85217,0.98784,-0.59169,-0.20972,-0.82681,-0.75488,-0.65314,-0.64846,0.49448
-0.72334,-0.21749,0.15091,0.001649,-0.41355,-0.35541,0.44526,0.045971,0.22209,0.29255,-0.32235,0.59064,-0.72039,0.82986,0.54872,-0.5618,0.29946,0.42819,0.41598,-0.37234,0.9076,0.63165,-0.54395,-0.89503,-0.072477,0.20172,0.66252,0.70392,0.41931,-0.49016
0.88399,0.47213,0.94612,-0.78981,0.57739,-0.2522,0.51169,0.8396,0.14577,0.011559,0.93095,-0.51411,0.46967,0.91834,-0.76739,-0.20079,-0.66705,0.75863,-0.40579,-0.15699,0.53171,0.8363,0.37751,0.91122,0.51524,-0.30924,-0.36912,-0.12411,-0.76108,0.69089
0.98312,0.57607,-0.72786,-0.56513,0.29568,0.58378,0.64628,-0.28569,0.93687,0.73917,-0.68084,-0.98979,0.39946,-0.58045,0.68432,-0.4627,0.29603,0.44258,-0.48872,0.24468,0.018079,-0.20912,-0.074758,-0.71457,0.062454,0.070882,0.28898,0.46256,0.069055,-0.45487
0.41424,-0.62905,0.29862,-0.18346,-0.51531,-0.62155,0.97943,-0.84449,0.24357,0.286,-0.9646,0.55074,0.97027,0.036179,0.61081,-0.48432,0.66075,-0.17622,0.25935,-0.18696,0.051466,0.47983,0.5227,-0.83844,-0.9694,-0.095536,0.67528,0.30607,0.28751,0.033491
0.81168,-0.98919,0.90037,-0.65815,-0.10345,-0.14534,0.91297,0.2623,-0.49108,-0.12732,0.70271,-0.37765,-0.95465,0.29345,-0.21089,-0.9184,-0.50335,-0.52721,0.21153,0.26203,0.24947,0.3145,-0.18292,-0.31325,0.69996,-0.81547,0.77968,0.93651,-0.60647,0.13785
0.72873,-0.71098,-0.12014,-0.57715,-0.055656,-0.37449,0.37305,0.72036,-0.13522,0.25038,0.44654,-0.32327,0.68651,0.4479,0.24441,-0.85033,-0.86056,-0.33838,-0.68119,0.48684,0.48347,0.99007,-0.37018,-0.18652,0.41347,0.6957,0.72595,-0.90127,-0.66169,0.35005
-0.80193,0.21152,-0.8816,-0.55591,0.34309,-0.79777,0.82816,0.85148,0.97475,-0.36639,0.70341,-0.019224,0.453,0.32121,0.81998,0.80772,-0.80051,0.23865,0.27126,-0.69098,0.7745,-0.75805,0.29642,-0.098343,-0.99158,0.099922,0.76834,-0.21035,0.76084,-0.81072
-0.99805,-0.44711,0.95324,-0.055731,0.24962,-0.3527,0.4,-0.0046141,0.83004,-0.94424,0.43381,-0.2936,0.88742,0.203,-0.11166,0.25945,-0.90247,0.99324,0.98466,-0.79028,0.58527,0.28239,0.097777,-0.050545,0.86707,-0.23332,-0.73967,0.87713,0.71921,0.99774
-0.25357,-0.80029,0.46556,-0.21234,-0.92775,0.6999,-0.021946,0.47057,0.74732,-0.24583,-0.74769,0.19799,0.66315,-0.40962,0.38728,-0.49039,0.12353,0.29222,0.27008,0.49481,0.29592,0.72859,0.069511,0.48284,0.0088022,0.59981,0.3266,-0.47386,0.62089,0.74581
-0.65663,0.0736,0.12504,-0.25262,0.59842,0.13951,-0.48172,0.056758,-0.78995,0.20372,-0.39646,-0.36114,-0.85594,-0.15754,0.70067,0.92787,-0.032672,-0.20154,0.23316,0.05231,0.25194,-0.84542,0.17616,-0.9252,-0.7838,-0.11003,0.077915,-0.73965,0.17926,-0.47263
0.49826,-0.097931,0.5374,0.47087,0.069672,-0.38635,-0.1869,0.035532,-0.35366,-0.21611,-0.84592,-0.44124,-0.95729,-0.5733,-0.16832,-0.15808,0.19891,0.47427,-0.37654,0.53867,0.90749,-0.95038,0.88425,-0.53532,-0.24986,-0.97268,-0.39855,0.56521,-0.28848,-0.064585
0.35936,-0.062026,-0.51065,-0.20728,0.36704,-0.39157,-0.45157,0.74501,0.89613,-0.68077,-0.74953,-0.95186,0.94664,-0.98527,-0.042691,0.84438,0.93481,-0.0049314,-0.42714,-0.74811,-0.96111,-0.059244,0.51021,-0.59105,0.64985,-0.86509,0.85611,0.51812,-0.69602,-0.96264
-0.38993,0.74276,-0.081963,-0.54094,-0.080098,0.42672,-0.94133,0.26677,-0.89255,-0.83068,0.70344,-0.067283,-0.092967,0.54363,0.94686,-0.17229,-0.93168,0.38757,0.030817,0.11142,-0.53454,0.36162,-0.28789,-0.75926,-0.54952,-0.94227,-0.46925,-0.45721,-0.39074,-0.28125
0.69086,0.76127,0.57275,-0.92593,0.60412,0.26423,0.69582,-0.2774,0.93316,-0.98039,-0.34827,0.70094,0.0021371,0.63954,0.51676,-0.14287,-0.22271,0.035218,0.34717,-0.74547,0.41475,0.605,0.24406,-0.72898,0.54326,0.28242,-0.51834,0.3574,-0.95609,-0.049441
-0.25843,0.55243,0.35212,0.46176,0.25614,-0.71848,0.20013,0.15134,-0.10105,0.3986,0.97916,-0.78702,-0.2063,-0.082406,-0.85197,0.87908,-0.97936,-0.47039,0.79308,-0.73187,-0.57649,0.77089,-0.20265,0.29709,0.55162,0.80128,-0.36347,-0.8558,0.69636,0.34463
0.68152,0.29237,0.21406,-0.20455,0.76287,-0.68356,0.12699,0.085334,0.45489,0.54464,-0.44984,0.85165,-0.66139,-0.030931,0.85766,0.31221,0.37696,-0.77686,0.060231,-0.24193,0.049962,0.84397,-0.20977,-0.44856,0.97712,0.19044,0.87913,-0.76444,0.76206,0.84763
0.62544,0.54321,0.58644,-0.37749,-0.60378,-0.076761,0.10547,0.14906,0.1915,-0.23522,-0.90328,-0.86763,0.56469,0.70401,0.47668,0.35484,0.8776,0.65992,0.13413,-0.86574,-0.75378,-0.61784,-0.080531,0.56808,0.76542,0.36253,0.43684,0.8929,0.48721,-0.49117
0.53575,-0.13991,0.30524,-0.9722,0.26466,0.91673,-0.54624,-0.37829,-0.45209,-0.1534,0.54276,0.64491,-0.31543,0.14887,0.12155,-0.72156,-0.064475,0.92655,-0.53925,-0.27944,-0.51099,0.31246,-0.011975,-0.49595,-0.22413,-0.67858,0.36025,-0.98956,-0.47487,0.31058
-0.83233,-0.45284,0.14474,-0.43892,0.35552,0.96442,0.13067,0.23813,-0.079433,0.29329,0.68047,-0.96745,0.091935,-0.10124,0.81958,0.4224,-0.46333,0.93934,0.30594,-0.93657,0.22199,0.33588,0.21285,0.21595,-0.86135,0.44646,0.70075,0.60836,0.86221,0.41208
-0.59838,-0.15635,0.65278,-0.94388,-0.5157,-0.0051367,0.11506,-0.59415,-0.86235,0.93108,-0.39711,0.44478,0.11181,-0.13857,-0.69984,-0.7557,-0.57406,-0.089346,-0.73028,0.6511,-0.92054,-0.51535,0.087668,-0.75091,0.2135,0.51159,0.56362,0.77872,0.52308,0.14733
0.15966,-0.93198,0.66439,0.92577,-0.19804,0.077387,-0.020719,-0.82165,-0.5781,0.42473,-0.11295,-0.19475,-0.59071,-0.47941,-0.70308,-0.42632,-0.97369,0.12172,-0.058202,-0.77211,-0.46033,0.64856,-0.15775,-0.8747,-0.54727,-0.33699,-0.14661,0.49882,0.54838,0.23975
0.68565,-0.17978,0.15526,0.96117,-0.67513,-0.89057,-0.69274,0.6174,0.59208,-0.36511,-0.033497,-0.33081,0.18669,0.91905,-0.44528,-0.89736,0.45486,-0.38355,-0.29099,-0.13036,0.046841,0.48915,0.50816,-0.62349,0.47876,0.64323,0.16062,-0.81892,-0.76923,-0.43253
0.74721,0.85834,-0.2673,0.80426,0.5129,0.56651,0.8787,-0.34268,0.14844,0.55581,0.60091,-0.22614,0.86024,0.80809,-0.13084,-0.2877,-0.82397,0.16136,-0.61055,-0.11936,-0.42559,0.2594,-0.32105,0.58703,0.81963,0.32912,0.12704,0.12953,-0.12936,-0.64217
-0.92625,-0.97716,0.63726,0.047642,-0.85305,-0.68858,-0.13204,0.79454,-0.46053,0.45667,0.15114,-0.97228,-0.89835,-0.73089,0.0071008,0.45796,-0.91743,-0.16608,0.26282,-0.92574,-0.56844,0.43239,-0.080432,0.11418,-0.73131,0.5832,-0.78269,0.12028,-0.99855,0.1622
0.37689,0.28419,0.50865,-0.14631,0.093611,0.67894,-0.95773,0.78573,0.5919,-0.31275,-0.93099,-0.14706,0.22978,-0.91121,0.93562,0.46074,0.44256,0.83376,-0.59643,-0.83788,0.17659,-0.10586,-0.017835,0.7213,0.85534,0.29917,0.5952,0.3789,-0.83299,0.53093
0.14938,-0.68313,0.067794,-0.14771,0.67756,0.24226,-0.98901,0.19556,-0.32954,-0.63482,-0.95603,0.56606,-0.40539,-0.91566,-0.040486,0.36809,0.57374,-0.079709,-0.99464,0.61809,0.15649,0.29176,-0.26599,-0.072864,0.6049,0.14217,0.66333,0.9589,-0.0090948,0.83747
0.66368,0.55371,0.12614,-0.14661,0.59286,0.89495,-0.2063,0.53911,-0.95287,0.032586,0.82025,0.56888,-0.33849,-0.14301,0.68182,0.74496,0.35247,0.095347,0.69027,0.41035,0.98645,0.48455,0.78816,-0.035583,0.1069,0.59952,0.55892,0.23718,0.18036,0.94149
-0.37591,0.52044,0.043598,-0.45202,0.45535,0.61217,-0.74214,-0.89688,-0.98907,0.71982,-0.057427,0.73586,0.91558,-0.65636,0.9005,-0.53002,-0.1359,0.016568,0.94244,-0.083524,-0.011642,0.2562,-0.78609,-0.98963,-0.43813,-0.12282,-0.99683,-0.8161,-0.90645,0.52745
-0.35975,0.57107,0.59685,0.27143,0.81858,0.035035,0.97435,0.44645,-0.70691,0.45156,-0.34702,-0.54532,-0.96629,-0.11983,-0.57446,0.43087,0.79495,0.10608,-0.70761,0.79914,0.53058,0.33805,-0.2809,-0.13438,0.86331,0.30536,-0.10444,-0.97124,-0.87511,-0.61021
-0.55593,-0.90804,-0.99245,0.039017,-0.75948,-0.30224,0.84769,0.41123,0.4602,0.87395,0.80255,0.063029,0.30065,0.025071,0.3889,0.32554,0.85134,-0.47413,0.66466,0.39743,0.5459,-0.317,0.37254,0.015826,0.19491,0.35644,0.23929,-0.45293,-0.53496,0.76313
0.27325,-0.47019,0.010953,-0.77274,-0.89267,0.73088,-0.55783,-0.99592,-0.61888,0.59633,-0.48258,0.68433,-0.075164,0.5499,-0.19703,-0.88957,-0.62692,0.23725,-0.62863,0.74263,-0.91602,-0.16118,-0.42737,-0.3794,0.28509,0.60084,0.58276,0.030757,0.77102,-0.10181
-0.084524,0.94969,-0.93913,0.86605,0.16017,-0.19538,-0.49895,-0.19004,0.78508,0.36729,-0.77527,-0.67378,-0.39709,0.30624,-0.61043,-0.082949,-0.93034,-0.64745,0.84889,0.60533,0.66806,-0.76906,0.016484,0.21781,0.41633,0.79956,-0.97135,-0.30255,-0.96254,0.33823
0.16227,-0.10976,0.039478,0.04829,0.7138,0.77595,0.60558,-0.59502,-0.92054,-0.94967,0.88127,-0.96656,-0.50837,-0.34775,-0.83061,-0.23356,-0.85479,-0.86899,0.4168,0.70872,0.54197,-0.21502,0.85836,0.64693,-0.094512,-0.098082,-0.21841,-0.96959,-0.36798,0.039669
-0.92609,-0.84769,0.81646,0.7526,-0.84184,-0.48531,-0.54233,0.77461,-0.3284,-0.029114,0.59817,0.28817,-0.87089,-0.45231,0.95705,-0.13094,-0.61625,-0.46731,0.71129,0.11616,0.070449,-0.75215,0.065026,0.67463,-0.58526,0.52776,-0.97636,0.78922,0.76567,-0.48001
0.63574,0.16823,0.028781,-0.68156,-0.9096,-0.096391,0.69117,-0.083513,-0.36168,0.37801,0.41351,-0.11159,-0.37482,-0.064795,0.71265,0.38548,-0.55435,-0.67894,0.33705,0.47658,0.47919,-0.24793,-0.8983,0.60471,-0.12907,-0.057521,-0.18276,-0.82275,-0.60819,-0.71435
-0.78647,0.017371,-0.75102,-0.26034,0.58817,-0.17958,0.79852,0.86479,-0.7797,0.57885,-0.21697,-0.18163,-0.19664,0.65209,0.5652,0.64162,-0.31696,-0.77738,0.6221,-0.60218,0.40436,-0.052248,0.46229,0.18587,0.91425,-0.26209,-0.83819,-0.74844,0.82488,0.15601
-0.34314,0.7078,-0.17409,-0.79426,0.36395,0.68998,-0.48329,-0.61041,-0.78323,-0.76806,-0.041872,0.12391,-0.7319,-0.70665,-0.43527,-0.45162,-0.37752,-0.95987,0.35059,0.047708,0.24032,-0.89995,0.73056,-0.82069,-0.29353,0.0024592,-0.46062,-0.75185,-0.81698,0.87898
-0.63688,-0.29985,-0.92168,0.07157,0.72909,0.84447,-0.84564,-0.25552,0.5129,-0.5843,0.061055,-0.7262,0.59694,-0.3226,-0.86141,0.28321,0.91468,0.1264,-0.83087,-0.72922,-0.59732,-0.68275,-0.25305,-0.94196,0.11057,-0.36293,-0.75404,0.19989,-0.97199,0.37258
0.022874,0.25791,0.72677,0.7283,0.94329,-0.86693,-0.4736,0.81498,0.52635,0.24259,-0.48444,-0.61375,0.76853,-0.1913,0.408,-0.29799,-0.86185,-0.42563,-0.29284,-0.3905,0.59392,-0.70058,-0.87934,-0.62574,-0.17886,0.69751,-0.47126,-0.70297,0.10536,0.26855
0.47779,0.70748,0.73467,0.79021,-0.99757,-0.20505,0.74627,0.0033132,-0.17564,-0.89294,0.21847,-0.54437,0.97905,-0.056055,0.33341,-0.31036,-0.58736,0.89228,0.5028,-0.34725,-0.74985,0.32076,0.76125,-0.52061,0.16218,-0.6415,0.4427,-0.15046,0.63335,0.89411
-0.42323,0.0028108,0.21763,-0.43194,-0.88494,0.84655,0.9675,-0.67675,0.1508,-0.14687,0.87338,0.61787,-0.95422,0.60289,0.6592,-0.28178,-0.34879,0.69617,-0.072953,0.033396,-0.55907,-0.35253,-0.75178,0.88171,0.16344,-0.12956,-0.22519,-0.79515,0.93118,-0.36295
0.31556,0.084754,-0.08099,-0.80391,0.72826,-0.95543,0.85693,0.75755,0.4292,-0.30684,0.21338,-0.20812,0.31078,0.84261,0.80763,-0.48918,0.9771,0.79707,-0.29194,0.0072579,-0.13876,-0.65666,0.059989,-0.72024,-0.19233,-0.55391,-0.28336,0.37373,-0.63831,0.47937
-0.14028,0.88965,0.72255,0.34318,-0.45041,-0.27552,0.29113,0.16243,-0.37239,-0.93514,0.77608,-0.11239,0.70678,-0.37263,0.81391,-0.61352,0.18816,-0.54672,-0.55031,-0.62961,0.43843,0.45131,0.97221,-0.78783,-0.096174,-0.068637,0.55634,0.074169,-0.29194,0.49911
0.16141,0.95174,0.71661,-0.070647,-0.71127,-0.50949,0.96434,-0.57325,0.34038,-0.092445,0.57983,0.58409,0.94872,0.8448,0.085315,0.62406,0.27952,0.072079,0.18049,0.3228,-0.75797,-0.3022,0.12942,-0.39012,0.94857,0.59646,0.77035,-0.84645,0.0118,0.15058
-0.40064,0.020942,0.023257,-0.83206,-0.98836,-0.60184,-0.10366,0.77559,0.38199,0.52017,-0.02787,-0.17904,0.57699,0.91217,-0.68711,-0.13174,-0.70571,0.41696,-0.6603,0.77815,0.060845,0.75715,-0.19866,0.77548,0.09345,0.33554,0.28553,-0.026878,0.67516,0.27762
0.12132,-0.51879,0.025163,-0.57712,-0.15704,-0.077154,-0.69461,0.85693,-0.99657,0.092963,-0.53132,0.22835,0.20766,0.8359,0.87081,0.59466,0.4912,-0.47647,0.36552,0.088273,-0.72146,-0.22514,0.011193,0.19413,0.3323,0.63336,-0.39619,0.98508,0.064815,0.10563
0.98517,0.16343,-0.83886,0.15739,0.46784,-0.48249,-0.9502,-0.13057,0.74347,-0.31456,-0.062891,0.23245,-0.89394,0.6472,-0.044829,0.75616,0.65321,0.073384,-0.35217,0.68128,0.63742,0.97447,-0.73474,-0.44426,-0.60038,-0.18726,-0.1171,0.21035,0.54858,-0.10833
0.085487,-0.31406,-0.58357,0.41542,0.2061,-0.68799,-0.91903,0.06631,-0.12029,0.73188,0.042167,0.91017,0.7408,0.059393,-0.78201,-0.31539,-0.62171,0.70918,-0.095754,-0.67516,-0.83955,-0.70258,-0.68113,0.73184,0.60991,0.75195,0.80055,-0.53175,-0.10486,-0.54048
0.75153,-0.10918,0.84921,0.18953,-0.70601,-0.29269,-0.39236,0.16057,-0.067885,-0.81544,-0.50358,-0.369,-0.060676,-0.51864,-0.44693,0.81733,0.85306,0.47163,0.65422,0.034759,0.77898,-0.77648,-0.87913,0.46018,-0.56228,0.38479,-0.1745,0.4482,0.21118,0.026479
-0.98441,-0.61205,-0.51708,-0.97631,-0.7427,0.055525,-0.96926,-0.096656,-0.13347,-0.13539,-0.93236,-0.93008,0.15563,-0.88143,-0.20422,-0.73065,-0.40956,0.99292,-0.94733,0.4667,-0.40004,0.92917,-0.34432,0.055487,-0.93888,0.45116,-0.093639,-0.40448,-0.90565,-0.90316
-0.21332,-0.12054,-0.29844,-0.46919,0.36422,-0.33643,-0.72493,-0.1199,0.90794,0.28628,0.17999,0.68866,-0.74304,0.74071,0.20497,0.41483,0.32551,0.39797,-0.7372,-0.80117,-0.63619,0.17792,-0.34298,0.2588,-0.99354,-0.064092,-0.15088,-0.99165,0.73719,-0.59862
-0.49267,-0.15221,-0.94801,-0.66574,-0.51813,0.072421,0.59351,-0.3183,0.17043,-0.8319,0.043293,-0.41132,-0.28715,0.1606,0.52979,0.13498,-0.32384,0.99919,0.62222,-0.84074,-0.12452,-0.56763,0.70065,0.044907,-0.015174,0.66029,-0.82096,-0.4737,0.60566,-0.4855
0.048277,0.76809,0.82855,0.060632,-0.32332,-0.52753,-0.7851,0.54346,0.34508,-0.014354,0.73146,-0.18813,-0.84691,-0.29441,0.94284,0.94388,0.046827,-0.7757,-0.44124,-0.77817,0.06589,-0.0038608,0.71801,-0.34034,0.35624,0.67364,-0.95298,-0.11981,-0.04893,-0.40266
-0.21885,0.33744,0.1825,-0.37039,0.08214,0.22175,-0.94105,0.9796,0.29345,-0.20244,-0.084324,-0.92488,-0.78493,-0.992,0.49665,-0.94167,-0.96282,-0.66637,0.36505,0.85257,0.65104,0.83722,0.9557,-0.83812,-0.71158,0.41635,0.91691,-0.66484,-0.3125,-0.31076
-0.19639,-0.49689,-0.8919,-0.6987,0.63209,0.84445,0.53619,0.22356,0.38005,0.94973,-0.81282,0.22664,0.88572,0.82155,-0.2101,0.24776,-0.50436,0.91468,-0.16222,0.098521,-0.71865,-0.48321,0.30637,-0.89324,-0.77836,0.9215,0.57464,-0.81162,-0.81815,-0.29594
0.40639,0.16012,0.26345,0.5453,0.15894,-0.62951,-0.85479,0.046947,0.33113,0.063486,-0.3926,0.59771,-0.5365,0.81807,0.81711,-0.14152,-0.70752,0.30779,-0.018127,-0.3285,0.98693,-0.73266,0.46204,0.95791,-0.11394,-0.2831,-0.33812,-0.4443,-0.20556,0.74737
-0.75911,0.44271,-0.0048028,0.5025,0.5563,0.33334,0.86703,-0.10461,-0.58105,-0.6817,0.051623,-0.22058,0.39351,-0.79945,0.84352,-0.066668,-0.1849,-0.52484,0.44238,0.99373,0.57414,-0.023151,0.18094,0.43559,0.69798,-0.68706,0.74933,-0.36034,-0.065485,0.14604
-0.18186,-0.79283,-0.39111,0.48875,0.44535,0.74575,-0.90565,0.76294,0.035478,0.94198,0.67086,-0.97797,0.93081,-0.066487,-0.95805,-0.13086,0.29082,-0.09818,-0.83987,-0.14796,-0.61717,-0.16392,0.2881,-0.10156,-0.24541,0.45819,0.37823,-0.48308,0.64256,-0.42708
-0.31579,-0.95937,-0.55141,0.51468,-0.84853,-0.70322,0.07519,0.9264,0.1515,-0.041574,-0.53193,0.22117,-0.13503,-0.058869,-0.24354,-0.14872,-0.77608,-0.73399,0.35153,-0.9246,-0.97589,-0.40852,0.83861,-0.22819,-0.30011,-0.98579,0.91955,0.044017,-0.95846,0.67235
-0.47371,0.79147,-0.76966,-0.26281,-0.13948,-0.16758,0.085281,-0.65947,0.55808,0.14347,0.33255,0.39432,0.80547,-0.55516,0.57388,-0.12536,0.4694,-0.89485,0.67204,-0.69093,0.14388,-0.097279,0.28322,-0.52082,-0.76644,-0.89851,-0.67628,-0.30611,-0.26363,0.61559
-0.030347,0.19762,-0.77687,0.48498,-0.92393,-0.45888,0.12998,0.3723,0.26963,0.65894,0.34754,0.54857,0.66352,0.882,-0.195,0.20722,-0.21907,-0.63127,0.71729,-0.37777,-0.41345,-0.65442,0.41448,-0.029659,-0.058638,-0.41567,-0.24757,-0.36197,0.75669,0.57125
-0.99108,0.26305,0.36224,-0.69534,0.85094,-0.35049,-0.77042,-0.87175,0.94494,0.0033133,-0.45425,-0.014741,0.69876,0.21266,0.74417,-0.48142,-0.56284,-0.022779,0.49405,0.44514,0.39128,0.36756,0.012411,0.013151,0.018534,0.41764,0.27573,-0.85651,0.14073,-0.98718
-0.16407,-0.21462,0.884,0.50134,-0.2998,-0.30158,-0.46796,0.8095,-0.042758,0.61305,0.35093,-0.74394,-0.08072,-0.28578,0.22675,-0.35269,0.8369,-0.073039,-0.35737,0.87443,0.91231,0.32813,0.6928,-0.20684,-0.34081,0.17543,-0.77419,-0.1172,-0.60898,-0.20904
0.14783,0.92458,0.83645,0.57911,0.0090312,0.76911,-0.3552,0.62832,-0.4975,-0.60329,0.2382,-0.64045,0.32828,0.21751,-0.13254,-0.95131,-0.68937,-0.8914,-0.61214,-0.68912,0.39417,0.07972,-0.89109,0.93359,-0.6288,0.33734,0.98671,0.9547,-0.76581,-0.73592
0.78621,-0.56593,0.73698,-0.30748,0.38749,0.80864,-0.021491,-0.12732,0.54068,0.93803,-0.57123,-0.56235,0.3345,-0.93482,0.35797,0.55641,0.62311,0.68105,-0.15864,0.84305,0.48368,0.96326,-0.60161,-0.85935,-0.56492,0.93961,-0.36463,-0.79314,0.84312,0.067168
0.559,0.84167,0.36289,-0.59324,-0.10846,-0.41198,-0.6412,-0.44598,-0.34248,0.43107,-0.99879,0.40851,-0.77488,-0.030625,0.87269,-0.32039,0.90332,-0.20934,-0.94653,-0.61054,-0.50374,-0.40572,-0.5999,-0.9996,0.041066,0.46035,0.25761,-0.88643,0.35697,0.047828
0.82666,-0.43653,0.60496,-0.88664,0.35477,-0.3736,-0.93482,-0.0086525,-0.32637,0.82722,0.030678,0.73954,0.12885,-0.89542,0.82767,0.39036,0.72226,-0.57279,0.17535,-0.53934,0.49573,-0.22527,-0.53466,-0.97892,-0.50354,0.58615,0.36356,0.92033,-0.55589,-0.68497
-0.37579,0.68457,0.86309,-0.57126,0.047844,-0.23553,0.37343,0.84316,0.7813,0.72683,0.4786,-0.78441,-0.64205,0.45506,-0.70662,-0.96398,-0.75181,0.10692,-0.023722,0.06193,0.85225,0.73958,-0.24799,0.74421,0.52898,-0.24157,0.51676,0.96309,0.84765,-0.71073
-0.98046,-0.53598,-0.10734,0.013759,0.54793,0.69475,-0.37885,-0.89376,-0.94312,-0.86489,0.63384,-0.35799,0.37371,0.034784,0.66943,0.7417,-0.84924,0.92174,0.79151,0.84855,0.86116,0.064401,-0.51607,0.49459,-0.042848,0.3236,-0.45915,-0.75405,0.43493,0.31751
0.95697,-0.081873,0.49989,-0.13024,-0.31759,0.86183,-0.42816,-0.56626,0.38691,-0.32618,0.90532,0.75257,-0.31178,0.20302,0.70027,0.63631,0.29756,-0.89509,0.61655,0.32145,0.86924,-0.61885,-0.49103,0.9345,0.1136,0.58013,-0.92918,0.095471,-0.24789,0.96394
-0.24193,-0.90008,0.13449,-0.97077,0.21942,0.29413,-0.4693,-0.54324,-0.19384,0.46179,0.53833,-0.79447,0.17324,0.093125,0.96972,0.3464,-0.86897,-0.82634,-0.52307,-0.40537,0.88623,-0.067694,-0.96276,-0.30631,0.34771,-0.091052,0.61276,0.14835,-0.48791,0.010546
0.84394,0.26246,0.83638,0.35139,0.94577,0.62785,0.088843,0.54555,-0.023703,-0.78675,-0.44815,0.19503,-0.86558,0.38795,0.62603,-0.65196,0.25849,-0.047565,-0.10569,0.84381,-0.58971,0.84541,-0.19642,0.80081,0.21577,-0.55278,0.96176,-0.8196,-0.29534,-0.35513
0.90723,0.76452,0.071291,0.8488,0.088453,-0.82617,-0.11594,0.77372,-0.30257,0.86374,-0.07755,-0.40285,0.49618,0.40392,0.029394,0.70067,0.83688,-0.62651,-0.016824,0.68918,-0.58443,0.88027,0.6639,-0.29004,-0.42418,-0.0033541,0.43476,-0.52401,0.40508,0.19244
0.38818,0.45619,-0.66285,0.017923,0.26626,-0.65038,0.39372,0.54506,0.01427,-0.90015,-0.15383,-0.0019803,-0.94953,-0.28733,0.49847,0.79362,0.42004,0.068154,0.81123,0.24855,-0.38329,0.48464,0.90739,-0.53783,0.37547,0.22839,0.98759,-0.94226,0.30979,-0.56283
-0.22876,-0.66184,-0.2298,0.13149,-0.53648,0.77619,-0.87353,0.97182,0.80791,-0.3189,0.8385,-0.42306,0.06254,-0.42416,-0.37146,0.65235,-0.83543,0.49932,0.73843,-0.67582,0.03771,0.69387,0.094069,0.93342,-0.12699,-0.66375,-0.90622,0.615,0.80408,0.62601
-0.37331,0.25867,-0.38985,0.036711,0.038575,-0.31415,-0.082252,0.74879,0.29501,-0.59697,0.52541,0.020705,0.33031,0.84918,0.71731,0.38461,0.59599,0.3209,0.094054,0.48381,-0.41224,-0.97886,-0.23566,-0.61747,0.58705,0.085173,-0.96167,-0.19194,-0.21467,-0.27016
0.60922,0.35782,0.58225,0.56847,0.67742,0.91007,0.92833,-0.44342,-0.31353,0.03624,-0.99437,0.54425,0.81627,0.027369,-0.76902,0.30406,-0.70212,0.36727,-0.71139,-0.87624,0.045175,0.044008,-0.94315,0.73191,0.59903,-0.95619,0.33441,0.62372,-0.98014,-0.9046
-0.64216,0.56081,-0.99218,-0.43997,-0.34177,0.24737,0.57248,-0.43947,0.84759,-0.87129,-0.51798,-0.50554,-0.84135,0.24572,-0.46416,-0.46883,0.16898,-0.72787,0.4956,0.93368,-0.71464,-0.53292,-0.41468,0.42509,0.56924,-0.59593,0.67988,-0.88349,-0.7913,0.43065
0.44355,-0.651,0.73791,-0.42984,0.75033,-0.75537,-0.62323,0.71038,0.77759,-0.20007,0.31729,0.9905,-0.67719,-0.60679,-0.14021,-0.67623,0.98624,-0.16222,-0.99275,0.46692,0.19016,0.43261,0.75535,-0.95691,0.29132,-0.62598,0.48651,0.8802,0.20981,0.47829
0.39461,0.47834,0.34094,0.1072,-0.19475,-0.95055,0.4682,0.036247,-0.97651,0.7799,0.076456,0.36252,0.61988,-0.12583,0.68275,-0.79442,-0.81049,0.56482,-0.50614,-0.73596,-0.25112,0.46308,-0.2868,-0.62534,0.73655,-0.65849,-0.44685,0.48138,-0.99382,0.87967
-0.36173,-0.8118,0.073597,0.39397,-0.079208,0.41644,-0.30173,-0.52111,0.73128,0.64139,-0.88102,0.076927,-0.93153,0.64879,0.80932,0.11866,0.39125,-0.37977,0.65698,-0.50005,0.092139,-0.85887,-0.71054,-0.49973,0.28862,-0.63187,0.93643,-0.69746,0.27607,-0.8724
-0.58769,0.27031,0.10916,-0.54124,0.64158,-0.69931,0.23709,-0.11545,-0.27238,0.45471,-0.17129,-0.22596,0.30554,-0.15985,-0.9467,-0.47449,0.48031,0.70124,-0.73524,-0.23604,0.48584,0.9253,0.36585,0.97707,-0.43148,0.28585,-0.12979,-0.71451,-0.77474,-0.55109
-0.93383,-0.47965,0.51809,0.31259,-0.90527,0.51674,-0.010296,-0.88158,0.84203,0.78387,-0.7574,0.59543,-0.54451,-0.38352,-0.10431,0.1825,-0.1829,-0.80985,-0.33021,0.57178,0.23258,0.2145,-0.44739,-0.84323,0.4814,-0.70522,-0.038966,-0.13886,0.2039,-0.35778
-0.21624,0.13293,-0.098181,0.75457,0.45136,-0.39775,0.023151,-0.23497,0.16043,0.015886,0.38968,0.67898,-0.96608,-0.23786,-0.88218,-0.19392,-0.70252,0.68532,0.23944,0.50702,-0.93258,0.058243,-0.49423,0.64654,-0.46179,0.12166,-0.33489,-0.20727,-0.39875,-0.20588
-0.93246,0.70638,0.72876,0.84453,-0.12591,-0.16591,0.28176,0.75532,0.48268,-0.57871,-0.94047,0.81078,0.41637,-0.46504,-0.10849,0.62917,-0.62616,-0.052771,-0.2711,-0.65599,0.7772,0.78801,-0.36626,-0.15062,0.98618,0.87304,0.4846,-0.25057,-0.6051,0.89546
0.38156,-0.93893,-0.39565,0.96171,-0.33608,0.06659,0.065958,0.96662,0.98724,-0.49551,0.28785,-0.89546,-0.078341,0.38311,0.24766,0.16152,-0.55935,0.54572,0.29248,-0.068763,-0.55313,-0.92935,0.37681,-0.031592,0.51166,-0.26217,-0.22923,0.26345,-0.88084,-0.79966
-0.81889,0.27601,0.77612,0.40102,-0.85639,0.74272,0.29064,0.14251,-0.013058,-0.001663,-0.81121,-0.39314,0.54487,-0.99492,0.34355,0.92135,0.36129,0.090709,0.56256,0.80933,-0.074356,-0.42976,-0.42398,-0.86455,0.014038,-0.37925,0.8489,-0.82276,-0.716,0.66953
-0.77723,0.83491,0.21933,0.11289,-0.90197,-0.27063,0.6753,-0.76631,-0.84619,0.45378,-0.94599,0.55127,-0.41183,0.0417,-0.3655,-0.92182,-0.42297,0.72118,-0.98721,-0.81475,-0.63148,-0.45246,-0.62896,0.47005,-0.56828,0.17931,0.51466,-0.034479,0.96063,0.92379
-0.88457,0.052316,0.10653,0.87269,0.09861,-0.34819,0.98759,-0.2273,-0.55275,-0.44266,-0.33097,-0.070841,0.40181,0.013068,0.75607,-0.026497,-0.57465,-0.90353,-0.45312,-0.34021,-0.90001,-0.055542,-0.73138,0.18035,-0.18922,-0.82921,0.63936,0.80309,-0.81602,-0.57894
-0.80702,-0.17565,0.74393,0.83494,0.85916,0.084537,-0.98368,0.24127,0.49166,-0.70617,-0.3789,-0.49745,0.53658,-0.48547,0.056621,-0.27561,0.85208,0.17613,-0.99556,0.10767,0.53303,0.99078,0.17009,-0.85092,0.31094,0.49662,-0.023302,0.1556,0.96477,-0.95238
0.24877,-0.90531,0.67143,-0.72166,0.47946,0.23044,-0.68046,-0.76389,-0.91611,0.75264,0.47075,0.34262,0.15978,-0.77631,0.55086,0.19551,0.076063,0.55249,-0.28509,0.598,-0.66511,0.44456,0.15688,-0.8865,0.70095,-0.63135,-0.6798,0.93863,0.49102,0.98174
-0.65213,0.6953,0.95112,-0.88783,0.76199,0.092089,-0.026744,0.8715,0.26627,0.16043,-0.93478,-0.013944,0.10796,0.85891,0.096614,-0.7845,-0.57294,0.50488,0.5178,0.42338,-0.78743,-0.86945,-0.45242,0.657,-0.60376,0.65823,0.13558,-0.085517,0.49648,0.48849
0.048182,-0.75504,-0.077975,0.68478,0.20425,-0.11737,0.074621,0.027652,0.76069,0.043284,-0.31166,-0.65933,0.17776,-0.80366,0.23021,-0.93108,-0.66287,-0.52572,-0.20781,0.71098,-0.99552,0.18602,-0.55854,-0.4324,0.47337,0.73726,-0.98255,0.60292,-0.7435,-0.333
0.58828,-0.72221,0.7691,-0.302,-0.0093877,0.22026,0.72696,0.16725,-0.68552,-0.16523,-0.77625,-0.15077,0.13807,0.64053,0.96635,-0.052105,-0.5442,-0.0048111,0.048299,0.42794,-0.4829,0.091913,-0.15703,-0.63645,0.93735,0.99921,-0.10517,-0.33228,0.98202,-0.30722
-0.35583,0.24159,-0.42137,-0.4416,-0.85779,0.39261,0.49057,0.82159,0.49308,-0.24102,0.58999,0.77315,-0.35768,0.12594,-0.22473,0.5737,0.21857,0.13365,0.73365,0.67924,0.56857,-0.067723,0.70281,-0.67304,-0.60642,0.28721,-0.74016,-0.7458,0.98801,0.22977
-0.31481,0.37839,0.6901,0.36847,-0.29847,0.31266,0.39513,0.31672,0.49175,0.91082,0.60945,-0.1815,0.075906,0.81778,0.33848,-0.88963,-0.37979,0.38159,-0.18212,0.94682,-0.86775,0.5838,0.27561,-0.71387,0.65749,-0.70181,0.55419,0.1071,-0.46459,-0.93211
-0.98155,-0.35873,-0.45147,0.18745,0.71625,-0.36289,0.26854,0.47553,0.78513,0.90901,0.98975,-0.62414,0.90641,-0.68353,0.41038,-0.84327,-0.40079,-0.06584,-0.62293,0.20512,0.98524,-0.29249,-0.27812,0.59566,0.21436,0.34207,-0.070743,0.31976,-0.43775,-0.58191
-0.60411,-0.65108,-0.54478,-0.92557,-0.27438,0.53526,-0.027542,0.069509,0.34028,-0.27317,-0.73165,0.34603,-0.78474,-0.25968,0.92223,-0.83099,0.4076,-0.85666,0.12756,-0.73948,0.15567,0.21624,-0.91655,0.12792,0.19706,0.97277,0.89861,-0.52144,0.43466,-0.03706
0.84003,-0.11664,-0.090058,-0.36738,-0.96342,0.63798,0.02444,-0.49174,0.37377,0.39507,-0.37883,0.26731,-0.46453,-0.31244,0.42342,-0.22429,-0.53136,0.41472,0.53005,-0.79662,0.34388,-0.01057,-0.90851,-0.83056,0.37905,0.88173,0.42614,-0.96417,0.98021,-0.67829
-0.33405,0.42275,0.85691,0.12957,0.69094,0.54799,0.96236,0.79173,-0.87879,-0.081529,-0.26172,-0.39757,-0.29854,0.48113,0.24051,0.0041666,-0.52511,0.09701,0.84613,0.62721,0.16991,0.68971,-0.31061,-0.53923,0.0814,0.19458,0.41682,-0.6265,-0.71104,-0.11572
-0.70107,0.46287,-0.46184,-0.18016,0.27143,0.86005,0.99699,-0.15373,-0.48262,0.074464,0.97585,0.77034,0.93497,0.71266,-0.12295,-0.42114,-0.1463,0.31292,0.65574,0.91875,0.97291,0.79386,0.67792,-0.49063,-0.3409,-0.74864,0.77288,-0.86619,-0.1031,-0.39112
-0.32792,0.73155,0.37748,-0.49604,-0.13159,0.25386,0.56732,0.0069428,0.20558,-0.034764,0.64981,-0.11912,-0.18077,-0.3956,0.20104,-0.64243,0.53833,0.042949,0.32622,-0.53716,-0.35393,0.048723,-0.72388,-0.57005,-0.30214,-0.7653,-0.28902,0.22798,-0.19111,-0.13421
0.86472,-0.44893,0.21093,-0.030172,-0.90787,-0.5131,0.51491,0.34823,-0.87559,0.70251,0.46434,0.98787,0.849,-0.5111,0.85093,-0.51346,0.77903,-0.47679,0.64061,-0.10193,0.12142,-0.14858,-0.16569,0.58215,0.98794,-0.050147,-0.70832,0.023954,-0.44443,0.50711
-0.16993,0.98695,0.20857,0.14746,-0.38042,-0.6808,-0.52467,0.92895,0.20394,0.97316,0.94093,-0.39305,0.35216,-0.68404,-0.29504,-0.0025138,0.46182,0.93191,0.51986,0.21711,-0.9118,-0.27483,-0.68614,0.3646,0.3886,-0.30559,0.13263,-0.02425,-0.93565,0.20172
-0.51611,0.75269,-0.054662,-0.45863,0.82194,-0.90061,-0.27074,0.96421,-0.49069,0.34378,0.17566,0.85903,0.13035,-0.89969,-0.21814,0.92733,0.56573,-0.79204,-0.35093,0.61612,0.059744,0.39968,0.23939,0.75722,-0.50156,0.0078863,0.80153,-0.37956,-0.78395,0.98394
0.54033,0.099643,0.25569,0.23572,0.34344,-0.532,-0.13278,0.83843,0.78076,-0.50308,0.35966,-0.4451,-0.15084,0.683,-0.10388,-0.10393,0.61713,-0.3213,0.5622,-0.41348,-0.41631,0.66392,-0.74438,-0.48832,-0.58261,0.086351,-0.014858,-0.031279,-0.47904,0.64113
-0.67512,-0.86534,-0.72971,-0.47457,0.26397,0.53295,0.18965,-0.53783,-0.63015,0.31578,0.75721,-0.37693,0.80681,-0.89215,-0.88796,0.49591,0.9555,0.22338,0.73829,-0.11175,0.14565,0.063011,0.11111,-0.70217,-0.35498,0.39648,0.24679,-0.8115,-0.0038272,-0.37273
0.52541,-0.16831,-0.44607,-0.17128,0.33023,0.29338,-0.56214,0.44329,-0.49741,0.068168,0.43054,-0.9202,0.68691,0.81038,0.069673,-0.1699,0.54229,-0.52482,0.31251,0.097531,0.11841,-0.56409,-0.6521,-0.18894,0.11349,0.61412,0.69579,0.84784,0.21282,0.90189
0.11626,-0.30953,0.37163,-0.99105,-0.80767,-0.98455,0.55493,0.94648,-0.083928,-0.055062,0.9289,-0.13157,-0.069387,-0.56438,0.60189,-0.32341,-0.085051,-0.030242,0.15314,-0.13595,-0.95491,0.62939,0.055925,-0.20648,-0.081585,0.37352,-0.28751,-0.93354,-0.59898,0.47189
0.48301,0.37997,-0.36511,-0.1602,0.24989,-0.63567,0.74144,-0.10596,-0.58257,-0.61453,0.5891,0.57092,0.57835,0.35101,-0.96163,0.7635,-0.86397,0.29168,0.45659,0.97611,-0.073488,0.579,-0.95085,-0.48976,-0.87746,-0.089055,0.64719,0.46379,-0.51438,-0.96859
-0.45531,0.23762,-0.14852,0.16644,-0.98297,-0.057665,-0.9256,0.90339,-0.051932,0.46,0.71792,0.25045,-0.38914,0.91114,0.30458,0.91923,0.25333,0.9263,-0.82724,0.93078,0.69087,-0.65854,-0.21001,0.0043966,-0.85009,0.31969,0.19349,-0.57262,0.22831,0.25947
0.64883,-0.67678,0.14235,-0.086067,-0.44398,0.52241,-0.52309,-0.43162,0.67706,-0.58732,0.63629,-0.99337,0.60928,-0.22513,-0.83365,-0.67724,-0.33034,-0.52307,-0.78176,-0.34103,0.84054,0.97164,0.30171,-0.61245,0.79972,-0.35898,0.33868,-0.36526,0.77597,-0.96013
0.44877,0.93772,0.38648,-0.29096,-0.81125,0.60021,-0.36174,0.34515,-0.85944,0.28562,-0.46887,0.71952,-0.4918,-0.8427,0.15545,0.66185,-0.19296,0.95912,-0.060214,-0.59206,0.70106,0.90524,0.64477,0.80092,-0.12287,0.51567,-0.5234,0.74378,-0.7695,0.030741
-0.48661,0.21803,0.75974,0.65795,0.29057,0.69068,-0.14545,0.4717,-0.76508,0.043115,-0.44985,-0.774,0.9179,0.40661,0.095093,0.18167,0.094216,0.104,0.83739,0.23117,-0.6933,0.395,-0.39444,0.12262,-0.525,0.96546,0.057389,-0.55037,-0.46121,-0.59707
