0.37692,0.88719,-0.6587,-0.52706,0.029016,-0.72311,0.70568,0.93028,-0.88265,0.87536,0.32382,-0.90477,0.11383,0.51409,0.10645,-0.36901,-0.90725,0.49609,0.0053458,-0.30036,-0.4561,-0.11055,-0.74736,-0.7257,-0.93499,0.85542,0.42283,0.64742,0.79567,-0.722
0.68813,0.38279,0.55537,0.22896,-0.11234,0.31556,0.91586,-0.99133,0.8798,0.087535,0.3713,0.44715,0.58421,0.012586,-0.47375,-0.37666,-0.05688,0.22228,0.68916,0.80455,-0.4008,0.66466,-0.99051,-0.49097,0.78219,-0.21697,-0.33156,-0.33771,-0.91965,-0.68245
-0.8558,-0.68917,-0.60102,-0.96228,0.76438,0.4846,-0.29081,0.92189,-0.56437,-0.067886,0.45462,-0.40493,0.034746,-0.48149,0.29393,-0.67876,-0.36983,-0.042893,0.22789,0.52796,0.88441,-0.33841,-0.60038,0.52909,0.61645,-0.95464,-0.55838,-0.15697,-0.052058,-0.16177
0.62388,-0.054347,-0.060603,-0.071142,0.050297,-0.37814,0.70667,0.91336,-0.3115,-0.73056,0.63737,-0.2713,0.13488,-0.26011,0.051213,-0.9433,-0.77424,-0.32072,-0.93056,0.54215,-0.45273,-0.44524,-0.6689,-0.26301,0.92783,-0.80807,-0.66497,0.19713,-0.45097,-0.77313
-0.24406,-0.74867,-0.43936,0.99544,-0.12946,-0.322,0.93392,-0.46906,0.015558,-0.22429,-0.78521,0.8463,-0.36278,0.4923,0.055122,-0.16524,0.061331,0.30743,-0.017272,-0.10507,0.89285,0.84012,0.42763,-0.65178,0.41997,-0.12679,0.20408,-0.88212,-0.69749,-0.53537
-0.25575,-0.72027,0.59202,0.64646,0.90102,-0.86133,-0.8353,0.3473,0.38449,-0.5102,0.6797,-0.58726,-0.48254,-0.36492,-0.10871,0.014981,-0.022323,-0.0062123,-0.061045,-0.0048032,0.69671,0.75429,0.49826,0.78691,0.13931,0.077839,0.50333,0.17248,-0.44448,0.060423
0.13773,-0.2853,-0.80442,-0.96733,0.47095,0.39266,-0.2712,0.20193,-0.24484,-0.53888,0.39731,-0.049255,0.28162,-0.58785,0.98116,-0.17845,0.41792,0.030734,-0.2737,-0.3644,-0.93187,-0.91374,0.59448,-0.61479,-0.29541,0.66016,0.53214,-0.10796,-0.41596,-0.14561
0.023555,-0.75321,0.25925,-0.38358,-0.7648,-0.79967,0.33038,0.21947,-0.54617,0.99799,0.72984,-0.55943,-0.63083,-0.44022,-0.91034,0.14237,-0.68579,0.80151,0.90963,-0.44085,-0.97082,0.26537,0.89642,-0.015515,-0.81812,0.54939,-0.70842,0.9565,-0.75522,-0.79773
-0.32933,0.043252,-0.020806,-0.37232,-0.85304,-0.92869,0.23819,-0.32848,0.69712,-0.83445,0.23123,-0.7956,-0.29812,-0.49208,-0.82763,0.28425,0.57117,-0.29352,0.62185,0.75903,0.29909,-0.75071,-0.052765,-0.88666,-0.6406,-0.18466,-0.48497,-0.75745,-0.97206,-0.37025
0.055829,0.28386,0.54452,0.32579,-0.10171,0.35205,-0.95508,-0.80221,-0.85477,0.28111,0.99192,-0.43726,-0.69176,-0.089651,-0.36672,0.75176,-0.81094,0.19189,0.72278,-0.61935,-0.2233,-0.042151,-0.44284,0.36481,-0.13642,-0.24436,0.29258,-0.88651,0.96393,-0.77479
-0.29312,0.88697,-0.50799,-0.89983,-0.44028,0.38201,0.67309,0.37173,0.14136,0.747,-0.63948,0.44929,-0.64069,0.32081,0.16712,-0.034292,0.18399,-0.52505,-0.067722,-0.46771,-0.47375,0.73138,0.30103,-0.1507,0.71517,-0.24646,-0.36628,-0.17777,0.66369,0.67528
-0.4555,-0.99121,0.97027,-0.83646,0.099159,0.040508,0.69568,0.25717,-0.86499,0.73854,-0.21694,0.53223,-0.42298,-0.28182,-0.46851,-0.38918,0.26173,0.25779,0.54117,-0.86803,0.61133,-0.97483,0.54097,-0.29579,0.8919,-0.80439,0.67862,0.27296,0.32906,-0.49334
0.7019,-0.17893,0.89031,0.21419,0.44762,0.60828,-0.26307,-0.47525,-0.62903,-0.47735,0.1872,-0.65931,-0.22491,-0.046822,-0.41118,-0.59301,-0.22343,0.39601,0.43355,-0.70549,0.30636,-0.88036,0.97438,0.84131,-0.28484,0.42747,0.29061,0.23993,0.4793,0.18129
-0.069241,0.56019,0.53621,0.49253,0.84886,0.57831,-0.81718,0.85096,-0.3513,0.13755,-0.21071,0.076614,-0.10407,0.71478,0.68137,0.12719,0.37989,0.82242,0.49989,0.24007,-0.090868,-0.63382,-0.74371,-0.10492,-0.22308,0.60072,-0.64621,-0.62085,0.58304,0.63042
0.32795,-0.17357,0.65748,0.83322,-0.70389,0.20526,0.21176,0.49325,-0.49359,-0.076922,0.01198,0.94746,-0.98258,0.084578,-0.27234,-0.36305,0.82738,-0.34283,-0.76028,0.12151,0.78241,0.84953,-0.031155,-0.41111,-0.55888,-0.23571,0.81396,0.36614,0.42276,0.2818
0.28839,0.10813,0.87302,-0.2721,-0.55042,-0.85955,0.46806,0.89556,-0.75568,0.62906,-0.94546,-0.97838,-0.33423,-0.13566,0.52339,-0.054484,-0.85414,-0.079707,-0.081556,-0.017191,0.094323,-0.029429,-0.87485,-0.618,-0.11373,-0.9176,-0.13979,-0.37567,-0.41602,0.20163
-0.15393,0.21096,0.84922,0.12188,-0.76025,-0.16161,-0.40312,-0.44295,0.37016,0.064392,0.74712,0.94207,0.61865,0.27896,-0.99543,0.14757,-0.50252,-0.66606,-0.26015,-0.64125,-0.21381,0.12723,0.38898,-0.47741,-0.44601,0.73835,0.28169,0.92669,-0.80395,0.31572
0.99769,0.45085,0.86676,-0.52763,-0.66295,0.69082,-0.031126,0.60844,0.8522,-0.91976,0.55815,0.51147,0.56351,0.61468,-0.28821,-0.81487,0.65703,-0.84951,0.86237,-0.30616,0.28435,0.40793,0.71683,-0.076546,0.46425,0.50947,0.40449,-0.84974,-0.47866,0.1326
-0.71864,-0.70509,-0.81919,0.57909,-0.56257,-0.7769,0.89792,0.61838,-0.068462,-0.75316,-0.58251,-0.5269,0.9417,-0.5353,-0.30172,-0.57167,0.44188,0.41129,0.90257,-0.062559,-0.15249,0.93835,0.93749,-0.57535,0.26055,0.61877,-0.022918,-0.010725,0.3904,-0.80328
0.65683,-0.35924,0.801,-0.26373,0.18796,0.41376,-0.19623,-0.32864,0.64354,-0.27531,-0.46068,0.027707,0.43623,0.049291,-0.41181,-0.85133,-0.060072,-0.29273,-0.38195,-0.84523,0.71276,-0.99071,0.62951,0.062095,-0.66412,0.67342,0.049468,0.98631,-0.33367,-0.57932
-0.96141,0.56187,-0.1261,0.77898,-0.73463,-0.2499,-0.88586,0.38883,-0.54857,-0.19642,-0.61026,0.36886,0.023492,0.2497,0.85183,0.47383,0.72043,0.98309,0.65231,-0.70487,-0.35619,0.94226,0.17634,-0.083464,0.76142,0.11718,0.64347,-0.30628,0.38837,-0.4412
-0.031689,0.73481,-0.69375,0.38668,-0.10827,0.0017599,0.17147,0.56309,-0.24042,-0.76472,0.097392,0.3929,-0.17597,-0.49183,-0.36725,-0.10614,0.10703,-0.96331,-0.17269,0.088324,-0.18759,-0.87198,0.21686,0.83852,-0.60052,0.10124,-0.49377,-0.89728,-0.26173,0.13377
0.39229,0.30977,-0.22471,-0.4606,0.67194,-0.34372,0.022584,0.3536,0.089676,0.17324,0.17707,-0.46971,0.732,0.17786,0.011589,-0.665,-0.50593,-0.62723,-0.81346,0.70683,-0.77296,-0.87782,-0.59474,-0.69679,-0.61095,0.51424,-0.50095,0.0018913,-0.6903,-0.44791
-0.97662,-0.92602,0.78679,-0.5386,-0.74679,-0.31434,0.54151,0.78919,0.042764,-0.97587,0.51118,0.4906,0.85122,-0.69898,0.031871,-0.3716,-0.75405,0.38895,-0.29847,-0.69149,-0.59356,0.8465,0.38294,-0.76576,-0.95701,0.81416,0.0589,0.79507,-0.3365,0.63918
0.69528,-0.84681,0.22839,0.020898,0.50775,0.36634,0.3413,0.13461,0.3771,0.30389,-0.61198,0.13683,-0.1083,0.62989,0.84508,0.86118,0.15002,0.19935,-0.051625,-0.5876,0.80342,-0.472,0.26762,-0.42242,0.14537,-0.088135,-0.20207,0.20237,0.39933,0.88437
-0.68278,0.57564,0.85135,-0.64002,0.91328,-0.22765,0.63861,-0.5456,-0.89106,0.16933,0.61231,-0.33719,-0.83962,-0.79994,-0.53599,-0.71928,0.65568,0.33291,0.34447,0.84727,0.30871,-0.15878,0.22073,0.45312,-0.82634,-0.49286,-0.3743,0.88251,-0.8397,-0.64727
0.96595,0.85634,-0.92369,-0.67935,0.26928,-0.037103,0.59871,-0.34576,0.55999,0.67092,0.66509,-0.31774,-0.89154,-0.63513,0.19238,0.96547,-0.63701,0.95705,-0.34858,-0.48324,-0.12089,-0.26312,-0.053989,-0.85251,-0.94254,0.74379,-0.21682,0.27786,-0.79182,0.65532
-0.27139,-0.42707,-0.83933,-0.14988,0.57914,-0.1269,-0.29821,0.29267,0.3268,0.53629,-0.8932,-0.4225,-0.87428,-0.030755,-0.86408,-0.015233,-0.62899,-0.20139,0.05325,-0.38162,0.76436,-0.62394,-0.11812,-0.41581,-0.95447,-0.4975,0.98035,0.52295,0.47075,-0.54545
0.79642,0.28684,0.49536,-0.64906,-0.78742,-0.80579,0.56353,-0.67635,-0.36284,0.16668,0.87983,0.34621,0.73201,0.0079895,0.73336,0.16941,-0.36109,0.26261,-0.15877,0.82186,0.39028,-0.76803,-0.46009,0.51107,-0.47039,0.41624,-0.33118,0.84776,0.85866,-0.64174
0.18465,-0.11443,0.22205,-0.51778,0.9858,0.047194,0.95303,0.64217,0.63693,-0.25348,-0.78039,-0.95453,0.62526,-0.99693,0.97995,-0.31815,0.42646,0.9037,0.081888,-0.61843,-0.87905,0.19024,0.14102,-0.92948,0.28777,0.92062,-0.86685,0.10906,0.93385,0.46743
-0.49229,-0.99669,-0.30581,-0.50439,-0.8992,-0.77812,0.83592,0.91323,-0.83495,0.64066,-0.45662,-0.18341,0.43032,-0.56801,-0.38441,0.0071966,0.0033533,0.80339,-0.29512,0.033184,0.24247,-0.61883,0.76518,-0.97784,0.057391,0.78424,0.33949,-0.067954,0.51174,0.29854
-0.45541,0.3736,-0.16213,0.368,-0.95595,0.14593,-0.012673,0.15017,0.50472,-0.97886,-0.72699,-0.99472,0.099129,0.81838,0.16462,-0.78944,0.45225,0.36096,-0.58093,-0.28623,-0.73331,0.64685,-0.38399,0.23528,-0.008431,-0.57489,-0.30481,0.30436,0.26869,0.32745
-0.72533,-0.60031,-0.33005,-0.76612,0.70923,-0.051985,0.9268,-0.19359,0.68767,-0.7431,-0.21762,0.74253,-0.001436,-0.89417,-0.80283,-0.043533,-0.89371,0.50105,-0.43742,-0.78914,-0.16183,0.3624,-0.8867,-0.15514,0.78096,0.794,-0.8956,-0.050296,-0.052253,0.44858
0.94813,0.94272,-0.26417,0.042721,-0.12218,-0.84337,-0.022604,0.62151,-0.51698,-0.28782,-0.28969,-0.53696,-0.62743,0.82175,0.75867,-0.83674,-0.14497,0.4348,0.11089,0.24034,-0.24766,0.065597,0.93432,-0.52584,0.74361,0.17392,-0.95249,0.0038743,0.64256,-0.79098
0.31323,-0.76488,-0.83475,-0.040139,0.20384,-0.87029,-0.62628,0.21092,0.55114,0.84985,0.26447,0.22097,0.5623,0.38159,-0.35801,0.37544,0.15659,-0.04129,0.26049,-0.067962,-0.4001,-0.38769,-0.55684,0.58419,-0.17525,-0.037103,-0.084229,-0.84581,-0.73188,0.054787
-0.98161,-0.1249,-0.81326,-0.62963,-0.4752,-0.41856,-0.68238,0.30586,-0.53599,0.55682,-0.60108,-0.046825,-0.6908,0.33262,0.39104,-0.9946,0.095951,-0.33493,0.42633,0.23317,-0.53076,-0.21424,0.46954,-0.092467,0.10287,0.046399,-0.6696,-0.023615,-0.21689,0.85752
-0.18138,-0.83024,0.46469,0.25248,0.82197,0.13752,-0.564,0.019672,-0.90787,0.61918,0.0098247,-0.733,-0.42533,-0.74946,0.83343,0.261,0.67756,-0.11062,0.38448,0.95745,0.37725,-0.57656,-0.84725,-0.63514,0.92443,-0.098611,-0.93371,-0.69492,-0.83764,-0.019181
-0.56594,0.53875,0.55879,-0.21966,0.89172,-0.047959,-0.45703,-0.4413,-0.38982,0.49651,0.13788,0.81303,-0.57749,-0.93582,0.2613,-0.18388,-0.27263,-0.11556,-0.63029,0.81017,-0.13965,-0.68389,0.063929,-0.098534,0.71547,-0.33992,0.57614,0.27381,-0.79222,-0.57517
0.25495,-0.097034,-0.019082,0.44834,0.59105,-0.53945,0.22884,0.79403,-0.088389,-0.77162,-0.30512,-0.935,0.22234,-0.62038,-0.5579,-0.22478,0.61474,0.35397,0.45224,0.32898,-0.20551,0.43745,-0.35501,-0.2847,0.6195,0.66511,-0.72008,-0.32238,-0.59678,-0.82668
0.33683,-0.2657,-0.95018,0.35533,-0.041271,-0.77505,0.19989,0.089892,0.83938,0.03721,-0.70134,0.07274,0.14571,-0.9626,0.46429,0.57613,-0.41027,-0.50516,0.93079,0.54066,-0.53082,-0.88923,-0.41592,0.96532,0.58569,0.85675,0.042276,-0.51033,0.68638,0.88737
0.54475,-0.37258,0.70638,0.33801,0.63508,-0.48824,0.24207,0.2164,0.69485,-0.15397,-0.61415,0.60038,0.61347,-0.18971,0.41966,0.96479,0.9775,-0.13621,-0.7975,-0.79113,-0.55957,0.49563,-0.52076,0.27092,0.69267,0.48998,0.15564,0.38053,-0.6359,-0.98982
0.29528,-0.76602,0.95385,-0.049953,0.98066,0.82778,0.68282,-0.59859,-0.59928,-0.58856,0.91957,-0.40798,0.0059139,0.11217,0.57475,0.41651,-0.42756,0.57354,0.28794,0.30687,0.021299,0.015093,-0.57886,0.54783,-0.86025,-0.51266,0.058516,-0.62269,-0.64769,0.017995
-0.80042,0.10196,-0.070636,0.57682,0.23883,0.90878,-0.58164,-0.049751,0.67909,-0.68949,-0.54977,0.5117,-0.4526,-0.26957,-0.25509,0.29804,0.26772,-0.4811,-0.74085,-0.62689,-0.87377,0.94656,0.074304,-0.39398,-0.40403,0.58427,-0.59783,0.7051,-0.7212,0.55556
-0.18284,0.85536,0.64346,-0.39128,0.30471,-0.41038,0.030504,-0.30482,-0.12397,-0.24785,-0.13108,-0.97742,-0.76358,0.019104,-0.28545,-0.32008,-0.40991,-0.37212,0.42428,-0.30821,-0.6981,-0.20372,0.96933,-0.59261,0.7956,0.32292,-0.58082,0.28858,-0.5581,0.42731
-0.63673,0.28977,-0.62576,-0.78521,-0.55625,-0.081189,0.19095,0.43311,-0.47373,-0.46402,-0.79739,0.11887,-0.81413,-0.62646,-0.75956,0.84083,0.63561,-0.94156,0.33013,-0.34077,0.61747,-0.98354,-0.19708,0.52669,0.89259,-0.52714,0.61965,0.71087,-0.63479,-0.27405
-0.56909,-0.87082,0.086959,-0.13126,0.4383,-0.22443,-0.16122,0.79786,0.15997,-0.52899,0.48042,-0.43389,0.53807,0.43137,-0.76321,0.10476,0.41619,-0.6389,0.90739,-0.79025,-0.6872,0.93818,0.52904,-0.4468,-0.80821,0.64156,0.86598,-0.24777,0.96357,-0.59131
0.67366,-0.42138,0.27613,0.79254,-0.12575,0.54076,0.55662,0.49064,0.67485,-0.034899,0.36628,-0.22711,0.88085,0.95276,0.63185,0.26931,0.07954,-0.058715,0.45216,0.90599,-0.94502,-0.73083,0.63513,0.57599,0.079071,-0.87257,-0.13897,-0.92424,-0.81291,0.27027
-0.66463,0.089702,-0.69432,0.16308,-0.43235,-0.21014,0.84657,0.80991,-0.53127,-0.48093,0.8057,-0.23881,-0.81916,-0.73272,0.11925,-0.851,0.41531,-0.76486,-0.86789,0.95741,-0.84385,-0.74373,-0.6357,0.66205,-0.57092,-0.12193,-0.86026,-0.0981,-0.89268,-0.14081
-0.10045,0.80235,0.14921,0.091083,-0.59565,0.80728,0.48024,0.84557,-0.36385,-0.29963,0.056977,-0.36041,0.59808,-0.25268,0.92895,-0.20538,0.76718,-0.31597,-0.056583,0.45503,-0.22969,-0.17228,-0.60461,0.97819,0.86392,0.56712,-0.63552,0.00406,0.32238,0.11307
-0.30438,-0.34919,0.79037,0.16898,-0.97081,0.84916,0.26092,0.97429,0.58112,0.30037,0.32768,-0.30921,0.99149,0.13809,0.69799,0.62989,-0.091041,0.094466,0.24585,0.273,0.75509,-0.84378,-0.062238,0.65253,0.80337,0.29211,0.02744,-0.48762,0.64858,0.70103
-0.86481,0.77575,-0.65218,-0.86986,-0.15705,0.3888,0.43832,0.60241,-0.94653,0.54809,0.78349,-0.71969,-0.19945,0.54278,-0.692,0.43937,-0.61271,0.96105,-0.1394,0.17415,0.26977,0.60121,0.60986,0.80218,-0.60304,0.32974,-0.28309,-0.00059897,-0.20488,-0.75097
0.67301,-0.77177,-0.95062,-0.42286,-0.14637,0.95162,-0.49649,-0.7861,0.37811,0.2742,0.3474,-0.14149,0.75953,0.94119,0.046958,0.4936,-0.63323,0.75635,0.68344,0.57325,0.047905,-0.86478,0.40488,0.088879,0.11329,0.22708,-0.034777,0.86678,0.47381,-0.87795
0.97035,0.17184,0.37498,0.034009,-0.71392,-0.47298,0.87086,-0.90249,-0.6043,0.32722,-0.99477,0.061973,0.48002,-0.87377,-0.93829,-0.42858,0.40425,0.31381,-0.37151,-0.98986,0.30247,-0.33236,-0.42488,-0.45173,0.85283,0.43771,-0.83993,0.01362,-0.43775,-0.27762
-0.12349,0.089727,-0.95311,0.90233,-0.9479,-0.92163,0.41827,-0.91123,-0.66954,-0.13674,-0.24462,0.22413,-0.29608,-0.78138,-0.46257,-0.70077,-0.58954,0.86809,-0.37388,0.86163,-0.51708,-0.97714,0.96922,-0.19904,0.88145,-0.70161,-0.5845,0.98669,-0.9758,0.18333
-0.88076,0.75304,0.39022,0.96416,0.15804,0.52945,-0.10144,0.09907,0.51907,0.77581,0.7005,0.44883,0.64008,-0.98907,-0.43922,-0.76764,0.2401,-0.28768,-0.23931,0.77956,0.72595,-0.92658,-0.13223,0.76332,0.16691,0.17607,0.79998,0.48445,-0.23875,0.49728
-0.034991,-0.83433,0.052834,0.16895,0.99339,-0.1525,0.94145,-0.42828,-0.35572,0.42572,-0.27568,0.53494,-0.33248,-0.47625,0.70146,0.21922,0.33707,0.91324,0.70315,0.71785,0.1829,-0.19258,0.44798,-0.17569,0.03336,0.5435,0.21429,0.90675,-0.79534,-0.18889
0.22294,-0.65977,-0.73684,0.16492,0.38918,0.23034,-0.096559,-0.89899,0.016206,0.14415,-0.33098,-0.9483,-0.55469,0.40011,0.90487,-0.29298,-0.64958,0.99981,-0.16542,-0.32893,0.2915,0.11423,0.77626,0.76521,-0.30814,0.54918,0.69332,0.014755,-0.63868,-0.11985
0.32351,0.31041,0.12714,0.87777,0.57583,0.75373,-0.41828,0.028504,-0.58063,-0.86188,0.26681,-0.23809,0.033314,-0.012044,-0.94133,0.88511,-0.022132,0.91985,-0.32738,0.98203,-0.48351,0.88742,0.49989,-0.11026,-0.50658,0.44434,-0.32336,-0.20181,-0.86601,-0.0057599
0.015293,0.26688,0.56983,0.55393,0.034308,-0.07959,-0.089174,0.23209,-0.75142,0.92585,-0.91758,-0.52949,0.82889,0.68693,0.60288,0.1219,-0.6935,0.20379,0.055392,-0.75009,0.48765,-0.73161,0.69444,-0.050565,-0.40901,-0.5844,0.062085,0.66148,-0.43948,-0.17437
0.27275,0.079446,-0.95623,-0.20725,0.95785,0.41045,0.6268,-0.56079,-0.23626,0.93592,0.45595,-0.153,-0.5413,0.80185,-0.18883,0.6958,0.66477,-0.63511,-0.20115,0.35016,-0.65599,0.23502,-0.45261,-0.41224,0.032061,-0.65933,-0.13522,-0.35122,-0.84427,0.80807
-0.5551,0.73684,0.7337,-0.6507,0.0092103,0.5472,0.19012,0.53176,0.12159,0.33902,0.86268,-0.17497,0.55654,-0.046838,-0.95697,-0.5167,-0.17281,0.61311,0.12158,-0.095862,0.6234,0.056284,-0.17274,0.15741,-0.95465,-0.70347,0.27445,-0.83018,0.765,-0.84567
-0.66037,-0.36977,0.59611,0.53962,0.88576,-0.033419,0.59473,-0.46442,-0.74844,0.17583,-0.47881,0.60446,0.62726,0.43367,-0.73251,0.64634,0.37051,-0.22094,0.84683,-0.39631,0.028785,0.76659,-0.97514,-0.30094,-0.67597,0.47587,0.54002,0.19192,-0.27638,0.097448
0.062858,-0.96191,-0.063937,-0.062635,0.54378,0.29416,0.18402,0.046017,0.95048,0.6564,-0.71896,-0.27308,-0.81498,-0.95246,-0.96829,-0.46788,0.35146,0.63778,-0.4599,0.87284,0.2577,0.95413,0.52399,0.083698,-0.018921,-0.9505,-0.38878,-0.34568,-0.66674,-0.32997
0.19956,-0.62827,-0.35007,0.31889,-0.039406,0.29812,0.56837,0.92578,-0.31933,0.78536,0.78797,-0.73828,0.0040665,-0.23295,0.48047,0.56983,-0.88246,-0.3001,-0.037675,0.067718,0.28657,-0.70945,0.12006,0.3393,-0.006734,-0.31881,0.62395,-0.72056,0.5152,-0.43678
-0.6317,0.097943,-0.70248,0.84782,-0.47588,-0.46151,0.96482,0.32231,-0.74709,-0.77799,0.52358,0.28271,0.8983,-0.85847,-0.49984,-0.4459,0.47697,-0.72665,-0.063872,-0.72358,0.73015,0.49652,-0.88899,0.98956,-0.99047,0.021638,-0.88205,-0.041978,0.32124,0.31862
-0.11788,0.30573,-0.76393,-0.069821,0.32016,-0.34409,-0.51618,0.46598,0.47701,-0.84473,0.577,-0.52854,-0.76874,0.46767,0.5928,-0.63176,-0.40778,0.020175,0.41408,0.9912,-0.033393,-0.49893,-0.61118,0.36056,-0.60715,0.7799,0.55443,-0.12215,0.20719,-0.33823
0.93328,-0.16965,-0.030216,0.21069,-0.34948,0.33169,0.81997,-0.30056,0.49533,0.64753,-0.69187,-0.4079,-0.91805,0.16842,-0.71941,0.23843,-0.30357,0.12108,0.30787,-0.091756,0.54807,-0.97897,0.42158,-0.019745,-0.18943,0.71255,0.63577,-0.32012,0.69166,0.99151
0.90211,-0.067169,0.46486,0.12531,0.45554,-0.30067,0.99585,0.72892,-0.59307,0.38509,0.96929,-0.72426,0.24176,-0.84817,0.93773,0.46809,-0.10828,0.85108,-0.076249,-0.71452,-0.58729,0.33763,-0.96495,0.14985,-0.22216,0.68461,-0.83889,-0.88297,-0.53665,0.042607
0.77902,0.42028,0.77991,-0.33615,0.273,0.41186,-0.98372,0.1804,-0.0081697,0.44886,0.87244,-0.29849,0.41562,-0.065992,0.077358,0.97596,0.59536,0.8133,-0.76556,-0.95783,0.58851,-0.60455,0.51279,-0.52641,0.36145,-0.1736,0.005286,-0.84742,0.39244,0.86671
-0.22369,0.27585,-0.6734,0.077738,0.50759,-0.93768,0.28643,-0.7226,0.062895,-0.43836,0.72192,-0.66003,-0.37129,0.41362,0.58238,0.59223,0.71048,0.74739,0.079303,0.2582,-0.15337,-0.7764,0.062325,0.94089,0.98047,0.49478,0.25433,0.3189,0.92379,0.033223
-0.84845,-0.53426,-0.068376,-0.23314,0.52513,0.12545,0.84073,-0.041352,0.31753,-0.60093,-0.40973,-0.62504,-0.79025,0.77231,-0.35571,0.33263,0.70032,-0.36548,-0.23855,-0.93315,0.13694,-0.96722,0.76483,-0.50968,0.25664,-0.57619,-0.40353,-0.070627,-0.68372,0.97042
0.33295,0.11698,-0.96489,0.94634,-0.069263,-0.60317,-0.29694,-0.1019,0.57076,0.35484,-0.86951,-0.075745,0.22383,-0.68723,0.3357,-0.41619,0.79382,-0.13734,-0.026486,-0.52955,-0.30175,-0.58256,-0.36976,0.53878,-0.92693,-0.22994,-0.28683,0.36297,0.6448,0.46338
0.84139,0.11034,0.59482,-0.70945,-0.36955,0.55047,-0.13635,-0.17953,-0.66717,0.99772,0.54256,0.77985,-0.7489,0.48209,0.62873,-0.22662,-0.48556,0.0020467,-0.91345,0.39658,0.64782,0.33106,0.80047,0.1251,0.75667,0.016989,-0.68886,-0.26063,0.32067,-0.98642
0.89144,-0.046809,-0.1461,-0.75985,-0.36733,0.42637,0.32299,-0.85612,-0.85176,0.47063,-0.10521,0.86466,0.58049,0.82187,0.87882,-0.71172,0.6596,0.80616,0.13206,0.75466,0.76088,0.59241,-0.53323,0.67895,-0.41737,0.64707,0.62449,0.67872,-0.61547,0.90828
0.2393,0.611,-0.84146,0.52704,0.61045,0.38578,0.010872,-0.42717,0.9103,0.12246,-0.40681,-0.75344,-0.81329,0.20356,0.21326,-0.41256,-0.68248,0.43677,-0.15981,0.41259,-0.45167,-0.37958,-0.68584,-0.023213,0.038627,0.83877,-0.4312,0.82081,0.48303,-0.052637
0.28348,-0.066984,0.036278,0.34583,0.37867,0.84737,-0.26138,0.3402,-0.34825,0.84031,-0.61668,-0.89427,-0.9412,0.85997,0.53105,-0.1581,-0.91028,-0.32774,-0.74013,0.70449,-0.90806,-0.8559,-0.39757,-0.39234,-0.74284,-0.52331,0.20474,0.29623,-0.89033,0.87109
0.40487,0.71919,0.94431,0.24226,0.57066,-0.71298,0.85078,-0.86001,-0.76276,-0.75734,-0.67916,0.081852,-0.67845,0.078171,-0.15002,0.39886,-0.69988,0.6752,-0.84813,0.43048,0.73616,-0.75205,-0.20089,0.063542,-0.90539,-0.97302,0.60728,-0.74901,-0.56628,0.32349
-0.33639,0.70723,0.33081,-0.29869,0.29655,-0.2246,0.99537,-0.05021,-0.61145,-0.48868,-0.035254,0.75626,0.48194,0.84131,0.11919,0.5531,0.5728,0.70533,-0.32699,0.74321,0.87689,-0.92527,-0.29033,-0.74091,-0.84594,-0.3625,0.045245,-0.72211,-0.20493,0.032411
0.87731,-0.86722,-0.46056,0.35563,-0.4413,0.011791,0.55919,0.033398,0.45275,-0.029497,0.53333,0.13428,0.39211,-0.27453,0.91385,-0.43734,0.85281,-0.85859,0.91424,0.93705,0.018368,0.88945,0.99455,-0.40688,0.51589,-0.64027,-0.3725,0.27499,0.34987,-0.17455
0.81885,0.95734,0.11184,-0.45963,-0.19943,-0.087033,-0.73751,-0.85378,-0.58223,-0.20903,-0.45455,0.15763,-0.04336,-0.71539,-0.86612,-0.93064,0.78331,0.75129,-0.86767,0.90483,0.9348,0.67226,0.27069,0.30398,-0.70286,0.70637,0.39309,-0.068354,-0.27821,-0.61672
0.41646,0.10319,0.4981,-0.2613,-0.27763,-0.98569,0.23359,0.22275,-0.48837,-0.99921,-0.68138,0.69292,0.47748,-0.056531,-0.079682,-0.32875,-0.22817,-0.081212,0.17329,-0.29937,-0.8914,0.12947,0.62894,-0.84152,-0.1295,-0.14926,-0.61944,-0.57047,0.19086,0.91429
0.782,0.26889,-0.50793,0.0042071,-0.49043,-0.27201,0.84662,-0.075979,0.42541,-0.87086,0.82554,-0.15582,0.62431,-0.98508,0.40238,-0.16263,0.40099,0.88432,-0.59365,-0.74651,-0.85629,-0.31729,0.57855,0.49096,0.84317,0.99801,0.84748,-0.89801,-0.63344,0.26162
-0.84615,0.43361,-0.83181,-0.017251,0.28392,0.81738,0.87049,0.1805,-0.0286,-0.0084885,0.39122,-0.68058,0.26404,-0.60733,0.13952,0.98921,-0.58779,-0.30453,-0.76288,0.1463,0.55756,-0.23286,0.71917,0.60236,0.072417,-0.99057,0.78185,-0.58202,0.75957,0.44219
-0.039893,0.94311,-0.35267,0.90153,0.80462,-0.67597,-0.59253,0.53623,-0.9578,0.63811,0.13759,-0.21237,-0.48501,0.457,0.37207,0.83755,-0.29062,0.90236,-0.99432,0.36001,-0.51758,0.63466,-0.13906,-0.46932,0.80122,-0.30708,-0.18554,0.67734,0.33897,-0.91269
0.21481,0.030579,0.31482,0.68093,0.51403,0.089359,0.2618,0.9144,-0.83331,0.0297,0.67578,-0.085363,-0.89738,0.0024351,-0.11239,0.4692,0.46044,-0.81761,-0.83658,0.48207,0.33575,-0.069847,0.92918,0.33766,-0.10275,-0.82003,0.56161,0.90257,-0.86262,0.57287
0.29604,-0.95274,-0.52967,0.0073189,0.60478,0.037242,0.17693,-0.73079,-0.77751,-0.26299,0.12483,0.89847,-0.38834,0.42503,-0.57185,0.61814,-0.92205,0.38074,-0.71363,0.68559,-0.83055,-0.45674,0.31861,-0.22594,-0.44221,-0.62566,-0.029991,0.79711,-0.94127,-0.66537
-0.99473,0.78552,0.11523,-0.54873,-0.042399,0.58598,-0.40889,-0.2184,-0.90044,-0.47363,0.49291,0.7813,0.98134,-0.22807,-0.90379,-0.030652,-0.9664,0.0061259,-0.44514,-0.36338,-0.4808,-0.412,-0.29996,0.98713,-0.66722,0.13695,-0.25445,0.35384,-0.53828,0.56168
-0.36406,0.12414,0.81443,0.070826,-0.97582,0.76143,0.61529,0.1338,-0.50643,-0.36299,0.36993,0.16521,-0.38477,-0.63198,-0.45039,0.67274,-0.069055,-0.94197,0.88474,-0.54313,0.86713,0.13889,0.81194,0.82624,0.17817,0.96947,0.42214,-0.64056,-0.47078,0.23983
-0.039344,-0.082959,-0.62608,-0.66006,0.5672,-0.53215,-0.12318,-0.54477,0.033201,-0.6286,0.96497,-0.68524,-0.90699,0.11822,0.5465,0.34963,-0.74158,0.46747,0.89403,-0.93792,0.71422,-0.78334,0.51052,0.20676,-0.12102,-0.60741,0.34678,-0.094954,-0.34601,-0.32623
0.95424,0.71021,0.45247,-0.96301,-0.17381,0.28041,-0.29909,-0.73196,0.8814,-0.83299,0.39802,-0.39191,0.62478,0.6932,-0.98217,-0.38949,0.077326,0.55368,-0.95563,-0.046741,0.67819,-0.20113,0.70309,-0.92491,-0.71275,0.75164,0.48673,-0.25246,-0.30759,0.86132
0.51511,0.8449,0.17697,0.55402,0.48805,-0.6224,-0.19832,-0.42728,-0.16136,0.61373,0.25013,0.26914,0.94085,0.2792,0.093899,0.64092,0.32115,-0.49253,0.61463,0.71992,0.77072,0.22283,0.74184,0.20039,-0.17058,0.67602,-0.080887,0.95276,0.93986,0.61417
-0.87211,0.75078,-0.33659,0.59118,0.10878,0.50751,0.30002,0.21166,-0.066753,0.53529,0.89376,0.81693,-0.25425,0.58751,0.41858,-0.89307,0.28345,0.98629,0.38346,0.81045,-0.12437,0.034118,0.13403,0.046067,-0.91236,-0.25552,0.70708,-0.16514,0.57601,-0.63443
-0.56017,-0.16435,-0.69326,0.66508,-0.89357,0.40985,-0.065541,-0.67845,0.24287,-0.60206,-0.18255,0.37554,0.17698,-0.84339,-0.79085,-0.59076,-0.17005,-0.83254,0.97357,0.80097,0.15117,-0.12698,0.25774,-0.34445,-0.64932,-0.86456,-0.55223,0.84603,-0.34617,0.77947
0.85095,-0.70278,0.016457,0.00089437,-0.67524,-0.95875,0.94394,-0.23601,0.3526,0.22181,0.25172,-0.56039,-0.34446,0.6404,0.33327,-0.044194,0.52476,0.9332,-0.81462,0.0013787,-0.58204,0.93095,-0.0036334,-0.61233,-0.68735,0.98638,0.34776,-0.6933,0.89242,0.31577
-0.54282,-0.49314,-0.1634,-0.74663,-0.058323,0.23512,-0.83091,0.44752,0.50811,0.80908,-0.60181,-0.55699,0.38247,-0.32775,0.64566,-0.31148,0.67476,0.18549,-0.87118,0.64457,-0.37314,-0.67748,-0.54904,0.75475,-0.8802,-0.34284,0.11166,-0.43998,-0.22604,-0.92753
-0.28549,0.17695,0.39245,0.51987,-0.54546,0.64989,-0.90852,0.1182,-0.28416,0.039815,0.33969,0.20402,0.16,0.0098806,-0.42645,-0.18053,-0.24083,0.89988,0.65981,-0.10697,-0.066104,0.0001525,-0.47251,0.92495,-0.35735,-0.94111,-0.33255,0.91156,0.52494,-0.093295
-0.70996,0.0461,0.71285,-0.3964,0.36373,0.46324,0.56784,0.69854,-0.48443,0.22046,-0.29419,0.61274,0.94865,-0.6897,0.52458,-0.19212,-0.89916,-0.85825,-0.39144,-0.49968,0.056166,-0.21947,0.41978,0.040225,0.67473,-0.75615,0.56787,-0.11286,0.38116,-0.66821
0.13003,-0.44072,0.58576,-0.99684,-0.37347,0.74205,-0.17226,0.24183,0.87294,-0.51397,-0.48936,-0.72631,0.62524,-0.26223,-0.59792,0.64786,-0.67651,0.75497,0.91896,0.64198,-0.97673,0.0089017,0.68429,-0.83923,-0.94972,0.56352,-0.12948,0.21455,-0.70964,-0.60153
-0.64955,-0.28053,-0.20785,0.6003,-0.28607,0.5605,0.39286,0.64902,-0.75028,-0.12311,-0.18176,-0.49245,-0.51295,0.86588,-0.10999,-0.45472,0.24812,0.77363,0.37721,0.94055,-0.11843,-0.068125,-0.079788,-0.37395,-0.49257,0.79934,0.12049,0.50741,0.92518,-0.019108
-0.51729,-0.76542,0.5864,-0.067399,0.31121,0.24865,-0.3088,0.63033,-0.5639,0.077266,-0.73268,0.62343,-0.27121,0.036722,-0.37102,-0.60342,0.69022,0.10717,-0.35499,-0.95795,0.81657,-0.97342,0.81414,-0.62974,0.16708,-0.9353,0.83184,0.75216,0.10035,0.062483
-0.76224,-0.19156,0.23156,0.72959,-0.14209,0.64516,0.68055,0.96155,0.72231,0.72412,0.77611,0.6564,0.77612,0.81701,-0.029965,-0.61712,0.26347,-0.32247,-0.083207,0.96073,0.010178,-0.49602,-0.95859,0.85453,0.72464,-0.64251,0.57409,0.43794,-0.75162,-0.055688
0.004415,-0.34898,0.89818,-0.27825,0.11155,0.22354,-0.39343,-0.88942,-0.52059,0.71042,0.52766,-0.65937,-0.45252,0.41221,0.90452,-0.62462,-0.74233,0.56621,0.011025,0.13608,0.16316,-0.22037,-0.2178,-0.14238,-0.16268,0.37407,-0.5256,-0.57791,-0.69476,0.054472
0.10816,0.13688,0.58812,-0.28563,-0.67291,0.038875,-0.3884,-0.052327,-0.62922,0.19592,-0.6926,0.50405,-0.76082,-0.063574,-0.44929,-0.68781,-0.83717,-0.27058,0.015778,-0.81635,-0.62819,-0.93602,0.54696,-0.14706,-0.57857,-0.85904,0.24004,0.96758,0.011907,-0.93232
0.53893,0.73729,0.65848,0.61788,0.69921,0.86068,0.93418,-0.87509,-0.83658,0.21935,-0.42866,-0.3565,-0.1641,0.12831,-0.084745,0.96528,0.90572,0.034222,0.35601,-0.84627,-0.5387,-0.027269,-0.99542,-0.99624,0.60047,-0.7716,0.25041,-0.87538,-0.69159,-0.96495
-0.99604,0.078208,-0.018756,0.33944,-0.20222,0.76577,-0.6894,-0.40663,0.35954,0.72888,0.39911,0.32064,-0.62067,0.54139,-0.5123,-0.96662,0.5565,-0.82935,-0.95087,0.015826,0.17297,0.020577,-0.55419,0.24187,-0.60299,-0.50873,-0.37199,0.87337,-0.53647,0.98624
0.96346,0.8142,0.30071,0.3787,0.5513,0.87089,-0.81915,-0.35533,-0.58924,-0.043442,-0.60358,0.59053,0.20152,0.65181,-0.20545,0.75336,0.061004,-0.05402,-0.94268,0.83912,0.86169,0.54739,-0.56015,0.48542,0.088795,0.42319,0.36037,-0.76466,0.39914,-0.68044
0.38634,0.71697,0.7193,-0.013644,-0.47267,-0.69239,0.69122,0.76341,0.20427,-0.96461,-0.45387,0.027008,0.32153,-0.96381,-0.47807,-0.70005,0.28292,0.28124,-0.63111,0.37283,-0.67326,-0.8739,-0.39345,0.89817,0.92734,0.49618,-0.12402,0.68636,0.23572,-0.30204
-0.27093,-0.18551,0.61472,0.19087,0.34207,0.80422,0.22648,0.57452,0.62817,0.94522,-0.24499,0.47914,-0.24618,-0.3798,0.60147,-0.057462,0.059693,-0.46258,-0.42637,0.39442,-0.54775,-0.71421,-0.56535,0.48807,-0.14621,-0.63823,0.70211,-0.42142,-0.093532,0.663
0.30033,-0.36638,-0.73058,0.50783,-0.98758,-0.96124,-0.068469,0.17947,-0.71138,-0.67468,0.078996,0.5023,0.72399,0.8385,0.22058,0.84279,0.096012,-0.030286,-0.23933,-0.34279,0.025678,0.48066,-0.98621,-0.64975,0.049623,-0.50019,-0.91626,0.31282,-0.33339,0.48943
0.93828,0.19192,-0.27528,-0.76379,-0.87923,0.49347,0.8191,-0.83,-0.34893,0.27443,-0.54689,0.83292,-0.67148,-0.82423,0.74821,-0.01576,-0.5803,0.74534,0.33177,-0.86345,-0.14696,-0.55115,0.38767,0.6459,0.065503,0.44136,0.24783,-0.43751,-0.79817,-0.73007
0.29206,0.4879,0.24585,0.56015,0.28357,0.17336,-0.43629,0.16173,-0.37428,-0.13414,0.22774,0.85355,-0.49254,0.75941,-0.87158,-0.099918,-0.93035,0.73517,0.68903,0.81622,0.46241,0.67793,-0.67132,0.85503,0.84339,0.93009,0.44492,-0.37446,0.02314,-0.15207
-0.83723,0.78016,0.77419,-0.62236,-0.46173,-0.14267,0.033159,0.7188,-0.73622,0.4252,0.99118,0.89799,0.80777,-0.88553,-0.75718,0.97548,-0.43007,0.92025,0.72721,0.03398,-0.13345,0.17678,0.96462,0.19943,-0.52027,0.62245,-0.52441,0.10898,0.0097316,-0.42108
0.5439,0.87715,0.47468,0.96266,-0.090738,-0.83436,0.46615,0.97084,-0.60803,0.97761,0.81074,0.90069,-0.62241,-0.56319,-0.54813,-0.52816,-0.089434,0.15963,-0.097272,0.96002,-0.46182,0.27082,0.63194,0.92608,-0.7564,-0.13067,-0.25727,-0.67571,-0.17605,-0.12063
0.39833,0.1596,-0.27704,0.90002,0.96887,-0.050946,0.6649,0.30993,-0.41234,-0.61704,0.016827,-0.42795,-0.12047,-0.30912,0.34045,-0.93187,0.97436,0.46134,-0.78011,-0.54505,-0.19162,-0.97216,0.94202,0.3963,0.53194,0.58844,-0.73285,0.94516,-0.98933,-0.34719
-0.15988,-0.45668,-0.4333,0.93619,-0.005809,-0.57738,0.84551,0.47168,0.89886,0.87172,0.92474,-0.72795,0.49715,-0.30472,-0.85278,0.12714,-0.76822,0.94153,-0.56105,0.92647,-0.32313,-0.17774,0.28293,0.51021,-0.13673,0.66819,-0.64868,-0.54115,0.46267,-0.69897
0.57316,-0.64164,0.43787,0.12901,0.045534,-0.86715,0.29919,0.40459,-0.19598,-0.08047,-0.69672,0.5889,-0.39481,-0.51434,-0.92394,0.18687,-0.23584,-0.3388,-0.45769,0.41572,-0.45933,0.90756,-0.13029,0.18084,0.81791,0.234,-0.40115,-0.83642,0.30424,-0.85141
-0.46293,-0.38895,-0.97477,0.69047,-0.44569,-0.97891,0.94068,0.24565,0.82371,0.20553,-0.91985,0.13648,0.181,-0.92959,-0.94127,0.94943,0.195,-0.59967,-0.26961,-0.12078,0.44859,-0.42296,-0.19607,-0.19386,-0.20658,0.95189,-0.84502,-0.87893,-0.17394,0.36482
0.3682,0.59009,-0.14857,0.78021,0.11394,-0.61263,0.86509,0.28948,0.85757,-0.0087034,0.62082,-0.97451,0.17882,-0.39102,0.29997,-0.24847,0.39902,-0.41258,-0.34956,0.044959,0.51205,0.72062,0.087143,0.034112,0.48687,0.9187,-0.67809,0.93373,0.9436,0.85714
-0.634,0.27753,-0.27956,0.9963,-0.69749,-0.83966,0.5683,-0.27212,0.62287,-0.55527,-0.58327,0.37652,-0.13309,-0.15382,-0.22765,-0.32194,-0.19589,0.79141,-0.25186,-0.99996,-0.0131,0.63077,0.7354,0.2258,-0.9994,0.86931,0.60948,-0.1437,-0.46457,-0.75325
0.95842,0.067447,-0.10553,0.35769,0.98165,0.926,-0.63546,0.88161,0.03568,0.95815,-0.35925,-0.53619,0.87991,0.046326,0.066591,0.77818,-0.27762,-0.5954,0.29815,-0.57595,-0.49239,0.14522,-0.036358,0.27626,0.91333,-0.4651,0.62266,-0.51899,-0.93519,0.0065953
0.74523,-0.66039,0.93511,0.090244,0.092512,-0.084368,-0.24242,-0.56521,0.33589,-0.029464,0.18066,0.66437,0.53793,0.051426,0.16711,0.23826,0.84311,0.38145,0.2955,0.6504,0.70163,0.55584,-0.83424,0.2659,0.037881,0.42212,-0.040987,0.60164,0.36137,0.43348
-0.67465,0.82949,-0.37184,0.7926,0.10255,0.74401,0.33638,-0.35635,0.29566,-0.86392,-0.91535,-0.50163,0.14053,0.22083,-0.86553,-0.88848,0.75205,0.89063,0.97602,-0.29753,-0.41552,0.38915,0.037096,0.5887,-0.8718,-0.59165,0.10732,-0.61918,0.98017,-0.2798
-0.15689,0.87685,-0.53133,-0.24625,0.49343,-0.41962,-0.76071,0.27733,0.819,0.80501,-0.18189,-0.47334,-0.9134,-0.75342,-0.39185,-0.41851,0.47807,-0.053792,0.80885,0.41119,0.68265,-0.89912,-0.70612,0.88564,-0.73063,-0.35934,-0.18464,-0.72867,0.11143,-0.94388
-0.5628,-0.3147,0.53661,-0.32095,0.96924,-0.86914,-0.77383,-0.62822,0.2383,-0.00032573,0.49841,0.4764,0.63201,0.8939,0.94594,-0.25471,0.60651,0.5781,0.62927,0.34321,-0.60938,-0.14286,0.50805,0.59559,0.40942,0.17484,0.25455,-0.71815,0.14123,-0.93453
0.21782,0.13838,-0.94343,0.53802,-0.59552,-0.18191,0.23279,0.63569,-0.35292,-0.85957,0.50796,-0.90903,0.16191,-0.91539,0.73992,-0.23074,-0.0012359,0.934,-0.44198,0.99251,0.3286,0.98545,-0.27331,0.75075,0.9322,-0.26212,0.13179,0.18847,0.99923,0.0064904
0.22544,-0.32463,0.56696,0.20744,0.90273,-0.21544,-0.85243,0.58766,-0.94035,-0.33693,-0.65235,0.73646,-0.85138,-0.78169,-0.93998,-0.69954,-0.62245,0.25331,-0.11612,-0.69123,-0.96765,-0.98524,0.45159,-0.66689,-0.72489,0.2283,0.24793,-0.49467,0.087934,-0.246
0.6753,0.59,0.75844,0.99886,-0.99512,-0.17589,0.81843,0.71923,-0.2858,-0.18799,0.020311,0.86477,-0.1598,-0.42295,-0.090186,-0.39847,-0.99953,0.84549,0.15356,-0.83602,-0.73987,0.52442,0.58582,0.45512,-0.74769,0.30266,0.71519,0.69069,0.78467,-0.90435
-0.91792,-0.70495,0.41886,-0.70211,0.49878,0.9762,-0.71261,0.90864,0.39162,0.7357,0.036045,0.22275,0.15212,0.14405,0.21641,0.87755,-0.9695,-0.74678,-0.45618,0.99999,0.23086,0.51406,0.77229,-0.26069,0.3761,0.30103,-0.072762,-0.95014,0.41113,0.80819
0.79043,-0.01315,0.64401,0.17525,0.63213,0.99685,0.87664,0.28358,0.42062,0.27871,-0.035093,-0.058966,-0.41756,0.12806,0.74388,0.66701,-0.60301,-0.64917,0.024641,0.94302,0.26386,-0.64327,-0.28693,0.12111,0.95771,0.98913,0.33791,0.38876,0.99966,-0.071454
0.11246,-0.52202,-0.17263,-0.74811,0.70208,0.060648,-0.45691,-0.017885,-0.40634,-0.031528,0.50501,-0.95973,0.55341,0.90832,0.22159,-0.40148,0.070913,0.4824,-0.098342,-0.43882,-0.80506,-0.14513,-0.83978,-0.15121,-0.18288,0.76231,-0.60411,0.81492,0.7843,0.68536
-0.45259,-0.98369,-0.016044,0.342,-0.51747,-0.29023,-0.29731,-0.47588,-0.8839,-0.39161,-0.6307,-0.37919,0.86272,-0.10669,-0.7017,-0.63292,0.24332,-0.5418,-0.45136,0.36924,0.36792,0.083448,-0.99321,0.68906,0.62322,-0.87573,-0.50106,-0.50261,-0.48641,-0.30972
-0.11849,0.38631,-0.47312,-0.32856,0.59537,-0.16731,-0.33285,0.11933,-0.4708,-0.039246,0.75877,0.57648,0.62362,-0.64991,-0.27185,-0.45028,-0.042251,0.51309,0.96859,0.93696,-0.64271,-0.57825,-0.058819,0.042204,0.78457,-0.13308,-0.78872,0.9548,0.33986,-0.43808
-0.30771,-0.70904,0.85801,0.96282,-0.66282,-0.47117,0.93292,0.7878,-0.24542,-0.98918,0.4891,-0.059888,0.097145,-0.72237,-0.78661,0.99474,-0.20364,-0.24576,0.95994,-0.78757,-0.97562,0.7394,0.63908,-0.3798,-0.048373,0.68153,-0.071963,0.78257,-0.7149,-0.81951
0.089954,-0.31632,0.33477,-0.40388,0.80702,0.052167,0.24126,0.14281,-0.060369,-0.2373,0.35058,0.5866,0.29553,-0.57411,0.31345,0.64984,0.24541,0.12259,-0.71517,0.73041,0.9711,0.16477,0.27595,0.5624,0.23194,-0.59073,-0.87209,-0.5073,-0.5491,0.39919
-0.4274,0.72504,0.49647,0.87748,-0.45527,0.8559,-0.383,-0.11001,-0.67327,-0.30958,-0.21912,-0.316,-0.78174,-0.71028,0.49772,-0.89718,-0.9889,0.034713,0.24017,0.84705,-0.62229,-0.95268,0.17371,-0.85921,-0.071295,-0.40705,0.32735,0.52675,0.32589,-0.65512
0.61303,-0.53925,0.83244,0.75786,0.33118,-0.39744,0.72442,0.057445,0.74061,0.035114,-0.96433,0.54534,0.98916,-0.23921,0.25903,-0.53841,0.4244,0.53761,-0.77044,-0.62422,-0.34504,0.050293,0.16702,-0.16011,-0.13849,0.04523,-0.06621,0.94636,-0.65004,0.98745
-0.86602,0.22503,-0.1884,-0.05788,-0.79194,-0.96793,-0.77304,0.98614,-0.60869,-0.95794,0.5779,-0.018488,-0.33824,0.68778,0.07705,0.63495,-0.13448,-0.74241,0.5194,0.10438,0.89764,0.8829,0.974,-0.083751,-0.95145,-0.12385,0.64237,-0.4787,0.79865,0.96004
-0.48553,-0.56189,-0.48332,0.23874,-0.049743,-0.4128,0.81888,-0.37556,-0.95678,0.13249,-0.96217,-0.60003,0.62129,-0.7037,0.32354,-0.48929,0.97628,0.96632,0.44411,0.76631,0.28054,0.47395,0.92115,0.46223,0.10076,0.7267,0.50226,0.50084,-0.67613,-0.4115
-0.42805,0.070345,-0.05735,-0.11594,0.13285,-0.85154,0.14244,0.86589,-0.96411,0.743,0.78927,0.80643,-0.29232,-0.37001,-0.88134,-0.039374,0.89357,-0.10881,0.32156,0.71903,0.94299,-0.74332,0.69767,0.037094,0.52376,0.29795,-0.096467,0.15191,0.3493,-0.61817
-0.79833,-0.1488,0.33708,0.13276,0.080596,-0.31323,-0.80679,0.33973,-0.31257,-0.22644,0.80282,-0.51468,-0.96131,-0.040552,0.33522,-0.64761,-0.53518,-0.12522,0.35816,0.032204,0.43904,-0.68951,-0.97695,0.61468,-0.042436,0.37758,0.95954,0.99012,0.55915,0.19343
0.13637,0.14677,-0.28363,0.062147,0.62026,0.83233,-0.91372,0.36491,-0.14285,-0.90772,-0.46727,0.3139,0.090409,-0.70083,-0.76132,-0.776,0.0067068,-0.53676,0.63997,0.85002,-0.12219,-0.77206,-0.90387,0.50849,-0.081606,0.28255,0.058624,-0.25512,0.032333,-0.33611
-0.50237,-0.045641,-0.81233,0.27623,0.82297,0.68495,-0.91342,0.70136,0.2378,-0.28807,0.10663,-0.15499,-0.8768,0.65809,-0.53865,-0.67712,0.65388,-0.34828,-0.3812,-0.46572,-0.46035,0.2522,-0.43749,-0.21179,-0.28095,-0.28471,0.26248,-0.45126,-0.06189,0.44038
0.48086,-0.80985,-0.51805,-0.95123,0.030007,0.16264,0.83024,-0.08417,-0.35598,0.61051,0.24171,0.31693,0.20968,-0.83105,-0.73216,0.95027,-0.23825,-0.54272,0.47911,0.32696,-0.24092,0.18872,0.68579,-0.53707,-0.52394,-0.57153,0.30071,-0.29428,0.078337,-0.38975
-0.89558,0.44406,-0.6613,-0.58649,-0.21857,0.75071,-0.39946,-0.25428,-0.97064,0.5852,-0.30462,-0.27039,-0.66298,-0.062305,0.52035,0.51003,-0.606,0.86514,0.53751,0.93666,0.0097522,0.30839,-0.067336,0.58196,0.85216,0.29207,0.12632,0.023457,-0.96054,-0.11193
-0.66995,0.7394,-0.26474,0.87074,-0.26706,-0.059835,0.2757,-0.87021,0.5409,0.56193,0.57084,-0.70118,0.71105,0.84325,0.58989,-0.090722,-0.087552,-0.99252,-0.35019,0.95602,-0.40634,-0.17967,0.52937,0.064433,0.76634,-0.20333,0.63819,0.77747,-0.43562,0.39784
-0.49323,-0.46738,0.38156,-0.59435,0.19392,-0.52264,0.29647,0.77032,0.022712,0.95641,0.10257,-0.43078,-0.59658,0.9563,-0.98887,-0.9984,0.87744,-0.86634,0.2539,0.074334,-0.30728,0.73257,-0.68844,0.71684,0.66386,0.97971,0.6857,-0.88335,-0.2196,-0.013238
0.42048,-0.074306,-0.026053,0.64684,0.72375,0.6743,0.56535,0.17528,-0.4821,-0.63829,0.77198,-0.67403,0.45564,0.50133,0.30657,-0.72835,0.55923,-0.90494,0.28502,-0.72117,-0.13188,0.14602,-0.36221,0.38312,-0.8489,-0.6945,-0.33827,-0.74579,0.74955,0.62429
0.5152,0.53147,0.51559,0.92801,0.46823,-0.29144,0.74745,0.77124,-0.51487,0.74809,0.22261,0.20472,-0.82983,-0.76112,0.28361,-0.58426,-0.27237,0.76694,-0.99815,0.093451,0.3902,-0.27303,0.13443,0.40139,-0.11749,-0.5276,0.56244,-0.87941,0.09362,0.92672
0.71955,0.9193,-0.44053,-0.58719,-0.33668,0.14769,0.60509,0.91917,-0.67108,0.10305,-0.44962,-0.99475,0.89365,-0.79051,0.30331,-0.48109,-0.29749,0.87883,-0.34139,-0.72361,0.40069,0.14532,-0.7199,0.82862,0.07356,0.96711,-0.0066886,0.1258,0.71205,-0.10099
0.61398,-0.036632,0.13523,0.43983,0.16386,-0.67038,-0.80834,0.37064,-0.082849,-0.11251,-0.28764,0.65681,0.94687,0.81779,0.25576,-0.8908,-0.92972,0.99758,-0.33795,-0.9312,-0.3009,0.31496,0.68194,-0.73225,0.28791,0.39363,-0.91929,-0.01304,-0.91423,-0.86258
-0.28295,0.20616,-0.51979,-0.8379,0.80859,-0.81506,-0.43379,-0.62051,0.45958,-0.27104,-0.084281,0.41872,0.33043,-0.27624,-0.5825,-0.85491,0.43524,-0.60134,-0.89504,-0.96571,0.10857,-0.57946,0.44465,-0.95553,0.18606,-0.47136,-0.43538,-0.71197,-0.95472,-0.84265
0.33828,-0.65434,0.42933,-0.45714,-0.01414,0.37633,0.035862,-0.12325,-0.27561,0.61142,-0.10081,0.2423,0.68337,0.39723,-0.61932,0.36029,0.080628,-0.52542,-0.471,-0.52938,0.37461,0.1104,-0.80753,-0.24974,0.85644,0.54477,0.57526,0.17334,0.42109,0.49135
-0.18529,0.031286,-0.55251,0.64181,0.27228,-0.50662,-0.28362,-0.31736,-0.66685,0.15122,0.11235,-0.19086,0.98701,0.53352,0.43347,0.08542,-0.59981,-0.43582,-0.8159,0.4636,0.084345,-0.44064,-0.12822,0.36405,-0.78262,-0.54197,-0.63641,-0.4647,-0.17324,0.25588
-0.89463,0.44315,0.049409,0.36141,0.16351,0.64949,0.82662,0.88519,0.8732,0.52198,0.17871,-0.6687,-0.5115,-0.34056,0.44107,-0.41516,0.2242,-0.22214,-0.92661,-0.076384,0.98541,-0.47888,0.85817,-0.74455,-0.36312,0.071868,0.32325,0.98048,0.074403,0.7609
-0.98282,-0.32099,-0.15535,-0.24179,-0.47758,-0.67558,-0.32701,0.089591,0.086761,0.33797,-0.38383,0.87952,0.52652,-0.78954,0.39644,-0.5327,-0.95931,-0.029326,0.56287,-0.13059,0.33719,-0.29323,0.81418,-0.92921,-0.056463,0.97161,-0.16621,-0.93909,-0.30919,0.20315
0.27246,-0.21564,-0.69995,0.66724,0.66045,-0.66804,-0.0014871,0.24997,0.7679,0.24283,-0.27274,-0.95542,-0.67241,0.58032,-0.18706,-0.40734,-0.31088,0.77933,-0.9246,0.086048,-0.19012,-0.27108,0.57722,-0.035833,0.71913,0.70291,0.41657,0.12993,0.87189,0.83203
-0.23042,-0.17616,-0.33468,-0.37488,0.54718,-0.4052,0.034448,-0.26308,0.3181,0.2994,-0.44499,-0.1924,-0.15045,0.56832,0.24859,0.65777,-0.89631,-0.76542,0.93029,0.33527,0.54251,-0.38502,-0.61324,0.59323,-0.29357,-0.88675,-0.71136,-0.61454,-0.52447,-0.449
0.1976,0.024124,0.16644,-0.23226,-0.40509,-0.60848,-0.9534,0.034748,-0.33745,-0.56096,0.14979,0.34884,-0.006987,-0.91557,0.63774,-0.65225,0.31505,0.094542,-0.049032,0.92964,0.018195,0.98594,0.9298,-0.47158,-0.17956,0.27479,-0.24315,0.68006,0.59108,-0.10513
0.84561,0.54446,0.6879,-0.95011,0.22913,0.42109,0.55422,0.009223,-0.29075,-0.55555,0.35863,0.95194,0.050225,-0.48573,-0.51411,-0.5004,-0.1558,0.11416,-0.038802,-0.48325,0.36195,0.22007,0.59951,0.23499,-0.88225,-0.20622,-0.98632,-0.43897,-0.18155,0.58575
0.72125,0.92172,-0.56534,0.086146,-0.39145,-0.12023,0.53497,-0.17633,0.015792,-0.30247,0.41729,-0.80026,0.16618,-0.3001,-0.26099,-0.51132,-0.85463,-0.61971,-0.26582,-0.088369,0.68803,-0.41419,0.85828,-0.40041,0.85909,-0.30619,-0.23305,0.97521,-0.47267,-0.73042
0.11578,-0.80311,-0.93996,0.93205,0.3063,0.68235,0.40432,-0.080918,-0.25152,0.69524,0.24873,0.87981,-0.48193,-0.77278,0.73491,-0.20956,-0.47494,-0.54869,0.9571,-0.237,0.2871,-0.62365,0.030289,0.4967,0.63822,-0.99745,0.094356,0.81731,0.19764,0.91382
0.1738,0.01957,0.78516,0.7259,-0.7282,0.34049,0.047349,0.24,0.29122,-0.18175,-0.01327,-0.60251,0.96761,0.40156,0.81188,0.48846,-0.45867,-0.36687,0.31983,-0.56677,-0.3663,0.39048,0.35766,0.86743,-0.83847,0.22241,-0.51353,-0.53823,0.20973,-0.78267
0.52035,0.58544,-0.85987,-0.02925,-0.31439,0.94846,0.7638,0.014647,-0.61732,0.9918,-0.98372,-0.011164,-0.52564,-0.26794,0.3332,-0.11456,-0.93913,0.49968,0.16223,-0.56236,-0.4886,0.10396,-0.11819,-0.99929,0.66153,-0.68382,0.3187,-0.36929,-0.76097,0.031955
-0.046248,-0.70843,0.37557,-0.22372,-0.049415,0.63431,-0.23629,-0.89762,-0.18784,0.71965,0.97019,0.7371,-0.17206,-0.47968,-0.88973,-0.58924,-0.12816,-0.24158,-0.41539,-0.80304,-0.77512,-0.63404,-0.91092,0.98859,-0.46249,0.39701,0.56088,0.57155,0.9239,-0.5196
0.78118,0.036618,0.46085,0.018769,-0.64967,-0.2282,0.8937,-0.51051,0.013304,0.80569,0.90225,-0.77564,-0.67279,0.066916,0.88308,0.54055,-0.73356,-0.71796,0.92548,-0.69419,0.30051,0.76158,0.049826,0.81891,0.34859,-0.15086,-0.36791,0.74689,-0.16153,0.45931
-0.026329,0.10186,0.50536,0.7455,0.2615,-0.69477,-0.22055,-0.82546,0.29828,0.10408,-0.11848,0.17992,0.45105,-0.47079,-0.12445,-0.3134,0.85615,0.6275,-0.55346,0.16127,0.41289,0.16373,0.22318,-0.18083,0.81015,-0.75842,-0.68207,0.099465,0.36689,-0.79653
-0.50178,-0.38242,-0.80771,0.50528,-0.20302,-0.88621,-0.97678,-0.62564,0.021887,0.061748,0.44502,-0.31599,0.24215,-0.77425,-0.61602,-0.12211,-0.68502,0.078005,0.73443,0.39274,0.91571,-0.82052,-0.66852,-0.96299,-0.017526,-0.089603,0.056574,-0.37954,0.085136,0.54275
0.081319,0.19674,-0.37692,0.95645,-0.8796,-0.49431,-0.012356,0.26886,-0.66417,0.67796,0.96255,0.78947,0.86428,0.50925,-0.86057,-0.65785,0.23518,0.65334,-0.4271,0.67787,-0.51702,0.29542,-0.90823,-0.83304,0.55304,-0.37162,0.08864,0.92147,0.48076,-0.70228
-0.98147,0.95476,0.48401,0.99478,-0.3436,0.26745,-0.19191,-0.31578,-0.41854,-0.55678,0.88407,-0.26097,0.075423,0.028847,-0.93929,-0.32961,0.35527,-0.69569,0.41817,-0.52039,-0.10503,-0.56253,-0.55589,0.55025,0.26869,0.066212,0.76471,0.15103,0.33675,0.61267
0.7355,0.06801,0.92573,0.39213,-0.35449,-0.93349,0.096246,-0.88974,-0.28195,-0.77477,-0.99076,0.96904,0.21588,-0.86018,0.66009,-0.065074,-0.23693,-0.16277,0.93774,0.28008,-0.71329,0.028175,-0.82276,-0.40124,0.044519,-0.75725,0.1714,0.9594,0.14703,-0.67379
0.11894,-0.93911,0.10247,-0.42923,0.94206,-0.091441,-0.055057,0.3763,-0.74535,-0.92236,-0.54674,0.87834,-0.83047,0.030366,-0.9407,0.18329,-0.84725,-0.78651,0.91045,-0.60301,-0.82753,-0.18511,-0.47293,0.26841,-0.92527,0.37913,0.31174,-0.88224,0.13829,-0.80557
-0.033643,0.61531,0.30061,0.74319,0.28235,-0.16884,0.15668,0.51141,0.93323,-0.23253,-0.90761,-0.47147,-0.93538,0.046393,-0.45985,-0.46561,-0.81509,-0.69483,-0.024978,0.94501,-0.48255,-0.43757,0.16723,-0.77778,-0.94025,0.36921,-0.22717,0.87509,0.86653,-0.6153
-0.16126,0.12584,0.30221,-0.68176,-0.29236,0.22716,0.20547,-0.50044,0.78382,-0.073846,-0.54899,0.28255,-0.32673,0.55987,-0.50298,0.51951,-0.84051,-0.61566,0.27125,0.13587,0.88819,0.65032,-0.59197,-0.33241,0.21154,0.62461,-0.798,-0.17574,-0.18152,-0.073831
-0.47701,-0.01898,-0.98617,-0.19809,-0.60246,0.36739,0.63942,-0.19685,-0.15633,-0.061679,-0.64289,0.086692,-0.42888,0.4978,-0.85942,0.12584,0.36419,-0.84729,0.53986,0.82924,-0.77329,0.91559,0.97869,0.2418,-0.13058,-0.83746,0.52869,0.78888,-0.4549,0.46549
0.20422,-0.40184,0.55905,-0.76444,0.87531,-0.6832,0.82918,0.98534,-0.90459,-0.96829,-0.28553,0.535,-0.26195,0.49403,-0.84005,0.29218,-0.34941,0.72457,0.36341,0.8346,-0.13134,0.42583,-0.57137,0.18167,0.79875,-0.80411,-0.98491,0.61119,0.12449,0.66283
0.25503,-0.44068,0.8692,0.71421,0.98099,-0.20596,-0.63606,0.74889,0.83039,-0.98089,-0.75668,0.01932,0.22564,0.39436,-0.29345,0.73245,-0.8803,-0.036463,0.066674,-0.3952,0.051079,0.15735,0.70917,-0.68255,0.31694,-0.36579,-0.0043922,-0.38483,-0.492,-0.82635
0.65625,-0.3974,0.1191,-0.5682,0.012445,-0.58285,-0.81692,-0.10576,-0.063999,-0.47119,-0.49219,0.58692,0.043761,-0.020957,-0.09174,0.45151,-0.080127,0.7386,-0.56237,-0.26632,0.64837,0.38698,-0.54992,0.26332,0.49491,0.31787,-0.6704,0.98214,0.26652,0.48857
0.75152,-0.63091,-0.35562,-0.12929,0.88774,-0.95101,-0.5022,-0.98571,-0.0067498,0.39992,0.015247,0.019371,0.075088,0.2611,-0.357,-0.77609,-0.02178,-0.11835,0.81718,0.15451,0.6182,0.67164,0.37533,-0.5428,0.76699,0.0040057,0.22875,-0.17566,0.4265,-0.95529
0.92423,0.28045,-0.84483,-0.64933,-0.0675,-0.17131,0.47561,0.80711,0.24458,0.31284,-0.98386,-0.22882,-0.89568,-0.28916,-0.082079,0.25562,0.80506,0.19469,-0.11606,0.24297,-0.12348,0.095244,0.52165,0.33042,0.94877,-0.13064,0.76595,-0.43728,0.16525,-0.84854
0.55292,0.29546,-0.18123,0.5497,-0.41763,-0.5238,-0.23885,-0.84887,-0.91484,-0.47773,0.56241,0.31691,0.93741,-0.39804,0.7671,0.97657,0.95877,0.69811,-0.80728,-0.076271,0.73311,0.12345,0.26083,0.31189,-0.96047,0.65343,0.53877,-0.94933,-0.44943,-0.14041
0.6236,-0.34835,0.82611,-0.15801,-0.2574,-0.76086,0.16137,-0.26717,0.14865,-0.87541,-0.071496,0.15993,0.89281,-0.48539,-0.70905,-0.81505,-0.92127,0.75127,-0.1854,-0.18195,0.55822,0.80127,-0.40744,0.6362,0.36843,-0.048945,-0.87176,-0.76501,-0.82804,-0.77711
-0.60354,0.44045,-0.56115,0.17214,0.27789,-0.099248,-0.55289,0.65455,-0.19668,-0.82111,0.12519,-0.40677,-0.84015,-0.72936,-0.28769,-0.81212,0.76206,0.72728,0.060613,0.84208,0.61594,0.88512,0.70125,0.099841,0.86353,0.74597,-0.030231,0.52865,-0.84447,0.37281
0.15533,-0.17209,0.20792,-0.28608,-0.25301,0.9321,0.086408,0.027862,0.5923,-0.80368,-0.70788,-0.48414,-0.15141,-0.96348,0.10896,0.45509,0.78646,0.046878,0.84885,0.77605,-0.6237,-0.41536,0.62553,-0.18622,0.56635,-0.75928,0.29266,0.88498,-0.85067,-0.17595
0.54637,-0.31766,-0.77196,0.96051,0.33569,0.56052,-0.14796,-0.90479,0.39293,-0.32684,-0.2465,0.99118,0.41155,0.52262,0.7391,0.65077,0.53955,-0.50696,-0.054725,-0.69345,0.37367,0.59833,-0.80264,-0.67066,-0.0019305,0.3952,0.39147,-0.14737,0.011144,-0.5833
0.40969,-0.95772,-0.015742,-0.23448,-0.22536,0.40033,-0.74371,-0.60585,0.2007,-0.82183,0.74183,-0.81557,0.6561,-0.23468,-0.70202,-0.72707,-0.10388,-0.49764,-0.91482,-0.43113,0.14925,-0.18913,0.67636,0.76492,0.5291,0.075929,-0.36535,-0.34772,-0.16607,-0.060636
-0.076496,-0.23278,-0.54251,-0.251,0.60362,0.5767,0.99125,0.54044,0.56848,-0.20108,-0.89392,-0.42377,-0.35974,-0.53641,-0.4961,0.34249,-0.90181,-0.89008,-0.88206,-0.6936,0.2622,0.050709,0.046575,-0.21697,0.012954,-0.61961,-0.15972,0.40542,-0.13503,0.045402
-0.48452,0.65152,0.6836,-0.56255,0.13923,-0.93711,0.43015,-0.77468,-0.13354,0.0045081,-0.32957,0.20652,-0.62876,-0.34939,-0.14542,0.40224,0.3991,-0.46532,0.37363,0.19987,-0.22388,0.84189,0.76838,-0.47984,0.4964,-0.45753,0.20817,0.90573,0.77588,-0.71949
-0.2618,0.56343,0.26367,-0.63375,0.010978,0.90126,-0.24318,-0.6449,0.72368,-0.27226,0.92338,-0.96016,-0.1537,0.86969,0.47633,-0.57527,-0.97473,0.90212,0.879,-0.68929,0.33694,-0.31678,0.0036118,0.58126,-0.24153,0.44945,0.45229,0.84853,-0.14291,0.3914
-0.12306,-0.92223,0.033298,-0.34397,0.11521,0.55802,-0.81206,0.82889,0.89162,-0.40948,-0.54353,0.98589,-0.86568,-0.60352,-0.77984,0.82723,0.57002,0.99923,-0.33611,0.49518,-0.16236,0.016072,-0.36811,0.46645,-0.63699,0.73857,-0.21238,0.016877,0.29754,-0.55908
-0.59007,-0.77227,-0.27029,-0.32682,-0.9099,-0.27791,0.15903,0.80871,-0.1197,-0.44617,0.57504,0.83288,-0.66547,0.079746,0.44082,0.85121,-0.11312,-0.25078,-0.1785,-0.2835,-0.82331,0.22338,0.53146,0.24892,-0.047229,0.71531,0.88847,-0.36915,0.55852,0.2745
-0.41596,0.25228,0.22791,0.44285,0.67631,0.2225,-0.32589,-0.90742,0.61349,0.62205,0.58213,0.94378,-0.53332,0.67855,-0.27216,-0.41346,-0.89866,-0.036733,-0.11294,0.019313,-0.096322,0.62004,-0.25485,0.8898,-0.74862,-0.5607,-0.048072,0.80413,-0.13721,-0.95666
0.7428,0.82002,-0.42437,0.92499,-0.38943,0.2419,0.72464,-0.95235,-0.24537,-0.056968,-0.73691,-0.10169,-0.86983,-0.4605,0.29482,-0.71654,-0.6013,-0.063901,-0.39311,-0.61738,0.91206,0.9688,-0.78785,-0.16808,-0.68495,0.7034,-0.63579,0.64874,-0.50913,-0.45839
0.9903,-0.62457,-0.79191,0.19555,0.27468,0.27349,-0.94932,0.61785,0.36115,0.83172,-0.66617,-0.63097,0.91,-0.35141,0.020844,-0.57836,-0.48672,-0.68864,-0.012236,-0.67877,0.41727,0.89549,-0.20824,0.8282,0.55817,0.1575,0.81889,-0.54959,-0.86004,-0.9119
-0.74464,-0.3642,0.40716,-0.42211,0.8017,0.21765,0.98552,0.96904,-0.38905,0.061668,0.61657,-0.93616,0.45057,0.048953,0.37646,-0.83432,-0.078163,0.43387,-0.047723,0.13742,-0.77229,0.74589,0.00063066,-0.49876,-0.32918,-0.1323,-0.40146,-0.58854,0.98685,-0.38206
0.64641,-0.57213,0.43741,-0.85213,0.399,0.74286,-0.67167,0.18656,-0.49348,0.93695,0.35811,-0.90304,-0.53176,0.23433,0.33578,0.10537,-0.21854,-0.29261,-0.38421,0.19689,0.52817,-0.40089,0.020327,-0.98016,0.96212,-0.60559,0.87495,-0.50524,-0.01134,0.4005
-0.41153,-0.96904,0.48706,-0.10005,0.1588,-0.8152,0.055712,-0.81145,0.54966,-0.48557,0.23176,-0.79601,0.16538,-0.17181,-0.048979,0.87609,0.62672,0.27714,0.4564,0.012773,-0.32205,-0.69363,-0.86659,-0.83282,0.038537,0.68664,0.99702,0.36417,-0.83524,0.65438
-0.18951,0.23054,-0.98728,0.16752,-0.10492,0.65653,-0.65431,0.82012,-0.49142,-0.79375,0.80827,0.34247,-0.67237,-0.35614,0.065797,-0.84962,-0.10503,-0.70908,0.27625,-0.87342,-0.3159,0.0022891,0.37637,0.53621,-0.54898,-0.49351,0.48356,0.016297,-0.056453,0.53024
0.12502,-0.86651,-0.39256,-0.98062,0.03927,0.98305,-0.58446,0.62808,0.54389,-0.82148,-0.9484,0.80277,-0.9163,-0.37688,0.34537,-0.51947,-0.85423,-0.79881,-0.89055,0.13654,0.43305,-0.84363,0.94985,0.49156,0.75884,0.92805,-0.86046,0.30456,-0.74572,0.94047
-0.54002,0.98075,0.72018,-0.83253,0.10472,0.55576,-0.098452,0.86041,0.1509,0.28842,-0.43731,-0.9973,0.41417,-0.046408,-0.84144,-0.85616,0.24597,-0.045324,0.6315,0.84415,-0.97478,0.52837,-0.90375,-0.10985,0.94938,0.9683,0.2537,-0.12961,0.29511,0.99948
-0.20429,0.45674,0.45639,-0.70123,0.22372,0.017124,-0.98633,-0.10952,-0.96418,-0.12121,0.0082639,0.16353,-0.43879,0.72015,0.80554,0.71067,-0.44216,0.89529,0.61396,0.089811,-0.44777,0.85871,0.12516,0.43928,-0.11933,0.75409,-0.88026,0.56689,0.11134,-0.15002
-0.31647,0.4023,-0.18574,0.41122,0.71777,-0.16186,0.13569,-0.98971,-0.74997,0.72052,0.69218,-0.44805,-0.53585,-0.67706,-0.44361,0.69204,-0.11138,-0.73116,-0.35714,0.31113,0.034492,-0.039461,-0.49239,-0.58842,-0.37052,0.021901,-0.95716,-0.79144,-0.84151,-0.0041767
0.11088,-0.28547,-0.24452,-0.41279,-0.030647,-0.54907,0.17971,-0.94307,-0.59096,-0.23379,0.79134,-0.72149,-0.78295,-0.77031,-0.37336,-0.48884,0.91366,0.34553,0.50747,-0.044438,0.80047,-0.14928,0.77268,0.83568,0.61386,-0.98543,0.49401,-0.8552,-0.91712,0.16352
0.31396,-0.33758,0.55177,-0.86528,0.71127,0.28729,0.81434,-0.52874,0.389,-0.44383,0.90895,0.053367,-0.97133,-0.60344,0.45143,-0.99668,-0.83043,0.63935,-0.53026,0.13011,0.55799,-0.92304,0.084532,0.90328,0.47589,0.013272,-0.76081,-0.6003,-0.70367,0.96714
0.35049,-0.47524,-0.32656,-0.38013,-0.31347,0.28327,-0.49101,0.75612,-0.79665,0.30275,0.36524,0.40049,0.48539,0.033958,-0.29245,0.096995,-0.07404,0.34425,-0.077879,0.43105,0.41036,-0.099492,0.042546,0.31165,-0.91962,-0.85841,-0.32302,0.48959,-0.67185,0.93585
0.45776,0.19506,0.072831,0.77039,-0.94372,0.0038125,0.098428,0.69435,0.42038,0.93707,-0.29219,0.39487,0.96647,0.45361,-0.58846,0.65047,-0.34382,0.71379,-0.12409,-0.24929,0.44142,0.16374,-0.51075,0.54492,0.71692,-0.1768,0.84236,0.93623,-0.92101,0.55736
0.077371,-0.6158,-0.90826,0.5355,0.016337,-0.78318,0.14623,-0.52811,-0.42304,-0.67786,0.63239,-0.49931,-0.31538,0.90501,0.31644,0.35163,0.73335,0.99162,0.57101,0.25962,-0.11792,-0.15057,-0.29063,0.1902,-0.15313,-0.007197,0.061499,0.020229,0.56821,-0.42346
-0.058554,-0.17656,0.21845,0.88903,0.4785,0.48431,0.67573,-0.39655,-0.96124,0.1891,-0.16882,-0.73207,-0.70445,-0.18414,-0.12347,-0.34037,-0.55617,-0.43808,-0.43896,-0.088973,-0.71106,-0.57554,0.079228,-0.24296,0.45986,-0.2274,0.62659,-0.90766,-0.6069,0.54894
0.72868,-0.95887,-0.63945,0.34228,0.72985,-0.30319,0.576,-0.92665,0.21419,-0.21412,0.16671,-0.15192,0.23637,0.42172,-0.34741,-0.56343,0.53756,-0.83105,0.91902,-0.75301,0.97687,-0.8074,0.7132,-0.27126,0.084838,0.66128,0.18942,-0.33805,0.80209,0.24792
0.31236,0.09595,-0.31748,-0.33307,-0.5141,-0.093142,0.36438,0.14936,-0.92354,0.85642,0.96561,0.24413,-0.68838,-0.49627,0.72121,0.32031,0.44633,0.37813,-0.83348,-0.95845,0.86796,0.15197,0.24486,-0.030435,0.23724,-0.53458,-0.90834,0.053341,-0.4209,-0.76316
-0.39525,-0.40497,0.97659,0.098318,0.90883,0.058499,-0.74107,-0.32651,0.42911,-0.61551,0.42925,-0.56151,0.65416,-0.36971,-0.94344,-0.82024,0.62297,-0.89611,0.033559,-0.9425,0.57812,-0.63735,-0.96258,0.60118,0.21596,0.16728,-0.50598,-0.34974,-0.048402,0.81314
-0.16957,0.34811,0.12288,-0.97532,-0.19708,-0.21059,0.49236,-0.032679,-0.99053,-0.6811,0.5265,0.015221,-0.61314,0.99526,-0.80074,-0.15858,-0.63618,0.32214,0.28613,0.15493,0.20885,-0.60637,0.45627,-0.089699,-0.86759,0.91352,-0.17225,-0.071378,0.52877,-0.87106
0.87009,-0.096014,-0.019559,-0.082154,-0.88002,-0.79719,0.29706,-0.47205,-0.061273,-0.36453,0.79228,0.32832,0.17826,-0.35239,-0.69696,-0.11818,-0.79477,-0.32965,-0.75653,-0.50815,-0.35033,-0.89045,-0.98913,0.58255,-0.29329,0.0091215,0.61117,-0.70235,-0.81746,-0.56126
0.15408,-0.29642,0.54865,0.65132,0.5507,-0.057771,-0.61513,0.6772,-0.73259,0.67893,0.40079,-0.21258,0.66031,-0.52521,0.093726,0.50743,0.68706,0.58449,-0.59901,0.438,-0.95272,0.041449,0.59224,0.77532,0.95243,-0.36582,-0.47548,0.3863,-0.97693,-0.70375
0.55163,0.59527,-0.72456,-0.31474,0.84103,-0.043087,-0.60798,0.077956,-0.29299,0.091259,0.53033,-0.57853,0.21708,-0.011818,0.65238,0.3404,0.74226,0.00041653,-0.20547,0.0099992,-0.73987,-0.18406,-0.22828,0.92363,0.43755,0.1332,0.5394,0.62518,0.1306,-0.48037
0.66484,-0.83904,-0.50777,0.22962,0.77166,0.86301,-0.86031,0.56973,-0.36982,-0.75182,-0.96112,0.43131,-0.089479,0.085109,-0.14572,0.078305,-0.68394,0.027505,-0.19236,0.49309,0.91449,-0.086819,-0.18699,-0.020368,-0.31795,-0.94843,-0.7075,0.88479,-0.90243,-0.75678
-0.67161,-0.75751,0.43874,-0.99699,-0.90079,0.67149,0.19043,0.92845,-0.28845,0.012961,-0.12179,-0.25844,-0.85426,-0.36742,-0.24532,0.56323,-0.97685,0.2187,-0.65707,0.049415,-0.41066,0.11982,0.96107,0.1834,0.97675,0.4292,0.96004,0.46496,-0.69789,0.84656
0.78618,0.37024,0.094672,-0.38539,0.051658,0.41776,0.53263,0.2832,0.74827,0.1865,0.4451,0.40722,-0.43964,0.11082,-0.749,0.49611,-0.68367,0.53877,-0.52293,-0.14884,0.97877,-0.1165,0.36436,-0.09349,-0.030759,-0.0019855,-0.92915,-0.21756,0.36732,-0.68784
-0.23934,0.19816,-0.60902,0.91576,0.41128,-0.74388,-0.015176,0.70028,0.91152,-0.88219,-0.44901,-0.72957,0.51825,0.10989,0.31516,-0.88773,-0.15082,-0.42196,-0.22144,-0.21982,0.70158,-0.94134,-0.74026,-0.32758,-0.087036,-0.89337,0.1816,0.20253,-0.50901,0.27778
0.56089,-0.32771,-0.99259,-0.23647,-0.24055,-0.48486,-0.054419,0.39866,-0.077236,-0.6759,-0.64069,0.85965,0.31243,0.18778,-0.86363,0.29591,0.51177,-0.98189,0.61202,-0.37026,-0.94171,0.59604,0.042377,-0.76258,-0.47044,-0.87663,-0.25426,0.49586,0.68094,-0.70194
-0.58429,-0.098628,-0.26024,0.80974,-0.067965,0.8136,-0.010001,0.40522,0.84561,0.50439,0.71667,-0.10049,-0.074236,0.29478,0.60292,0.30144,-0.82459,-0.82779,-0.40242,0.4704,-0.61637,0.6274,0.0032567,0.042512,-0.34938,-0.53121,0.36374,0.35705,-0.70836,0.026689
0.20449,0.57535,0.96007,0.5974,-0.42722,-0.47622,0.7425,-0.31204,-0.62839,-0.013592,-0.88575,-0.67525,0.84591,-0.1419,-0.20523,-0.54748,0.17875,-0.36085,0.73198,-0.50631,0.32346,-0.58398,-0.60158,0.27784,0.055081,-0.91373,-0.68383,-0.24805,-0.62386,-0.93658
-0.054896,-0.75475,0.73176,-0.072274,0.41017,-0.054157,0.74498,-0.41458,-0.94599,-0.19263,-0.5332,-0.9586,-0.87436,0.75047,-0.94598,-0.45934,0.39287,0.13014,0.63427,0.65743,0.081667,-0.3951,-0.39561,-0.60985,0.94275,0.45169,-0.89208,-0.89618,-0.57921,-0.70955
0.46789,-0.10996,-0.59876,-0.73992,-0.5089,-0.51469,0.22754,-0.99435,0.69835,-0.54237,0.71104,0.76223,-0.7476,0.80412,0.89065,-0.72626,-0.88416,0.34038,0.47436,0.66151,-0.25232,-0.75774,0.30823,0.9688,-0.25657,0.99186,0.092399,-0.26085,-0.2878,0.63298
-0.12721,-0.96637,-0.88002,-0.12261,-0.19229,-0.86944,0.99042,0.88862,-0.94426,-0.15089,0.61257,0.022894,0.69155,-0.7813,0.3673,0.68016,-0.6268,-0.76582,-0.81029,0.61947,-0.09466,-0.76901,0.47811,0.46012,0.22966,0.27441,-0.90304,0.27337,0.67463,0.62791
-0.86416,-0.39461,0.40696,0.8246,0.72464,-0.13977,0.54551,0.53931,0.57756,0.85193,-0.69855,-0.18947,-0.73962,-0.38482,-0.81364,-0.3513,-0.62955,-0.82545,0.74064,0.67123,0.57643,0.074139,-0.59302,-0.40846,0.30388,0.47734,-0.019341,-0.63163,0.37904,-0.33771
-0.41599,0.41012,0.9627,-0.93098,0.10247,-0.8244,-0.87669,0.071886,0.084687,-0.95504,-0.3223,-0.22703,0.90589,0.95518,0.63866,-0.51788,-0.070158,-0.070062,-0.70002,0.44528,-0.536,0.8927,-0.90064,0.45714,-0.98487,-0.56596,-0.20077,-0.30562,-0.90186,-0.37297
-0.16561,-0.88723,-0.52599,-0.24862,0.70326,-0.71665,-0.97739,0.73404,0.23024,-0.35017,-0.37791,0.31612,0.2701,0.405,-0.070287,0.87714,-0.63268,-0.97076,-0.062159,0.23832,0.88019,-0.63974,0.35442,0.63325,-0.17753,0.94548,-0.16118,-0.3672,0.20193,0.77818
-0.22988,0.22256,-0.38087,0.039564,-0.11122,0.8715,0.0026695,0.30779,0.53933,0.61721,-0.26493,-0.92064,-0.59084,0.58094,0.56923,-0.57866,0.76722,0.082412,0.066637,0.92232,-0.48692,0.74084,0.033423,-0.28052,0.61223,-0.059107,0.43823,0.23994,0.46878,0.33335
0.4772,0.80327,0.44812,0.46883,0.1804,-0.66969,-0.7572,-0.81166,-0.91801,-0.75435,0.62541,-0.50693,-0.50028,-0.89623,-0.34932,-0.022231,-0.10188,-0.30187,-0.10566,-0.25856,0.75961,-0.22197,-0.28712,-0.067258,-0.2358,-0.19425,0.96306,-0.49189,-0.67201,-0.11256
0.28051,-0.46526,-0.97938,0.29544,-0.66751,-0.096975,-0.50397,-0.80009,0.65083,-0.55565,-0.60155,0.66097,0.16899,0.47191,0.056506,0.11609,-0.028307,0.99307,0.0030556,0.74946,-0.29681,-0.91488,-0.5485,0.67186,-0.037123,0.48318,0.60894,0.29996,0.041084,-0.075551
0.14766,0.87381,0.84041,0.096653,-0.14053,-0.73751,-0.27384,-0.85705,0.64102,-0.24174,-0.75299,0.35886,0.23256,-0.70918,0.59579,-0.27161,-0.44346,-0.65259,0.52912,-0.0885,-0.36131,-0.107,-0.73334,0.76735,-0.25595,-0.1651,-0.89991,0.87817,-0.0040878,0.59559
0.64197,-0.35168,0.68195,0.89875,-0.196,-0.89527,0.99567,-0.89373,-0.21742,-0.17874,0.61897,-0.56761,0.28558,-0.90903,0.89661,-0.013115,0.13165,0.2238,0.32671,0.30248,-0.43127,0.52271,0.16038,0.33596,0.36057,-0.70946,-0.86545,0.080765,-0.90838,0.7127
-0.25319,0.64921,0.24613,0.51855,0.46091,-0.89888,0.072388,0.82788,-0.14137,0.19018,0.037217,-0.52042,-0.41501,-0.025343,0.010375,-0.76964,0.64241,-0.32529,-0.47242,-0.58094,0.60933,0.48155,-0.37463,-0.72302,0.99937,0.20981,0.13393,0.6174,0.096986,-0.61894
-0.5244,0.04564,0.92761,0.70014,-0.8743,0.87002,0.95398,0.87586,0.3481,0.34914,0.23915,-0.98336,-0.59413,-0.28978,0.70167,0.79958,-0.93789,-0.79221,0.2261,-0.98662,0.77435,0.89884,-0.34935,0.097933,0.99782,0.60183,-0.93532,-0.24546,-0.80389,0.36801
0.98392,0.48717,0.1917,0.25384,0.87223,0.6877,-0.92191,-0.77805,-0.88682,0.95108,0.80085,0.76189,0.53571,-0.17491,-0.54326,-0.47857,0.68397,-0.017218,0.97811,-0.30869,-0.11223,-0.34918,-0.32327,0.39835,0.31058,-0.28664,-0.14603,-0.13503,0.7249,-0.35995
0.934,-0.42934,0.8755,0.15397,-0.058199,-0.39085,0.83297,-0.28108,-0.97247,0.39485,-0.088932,-0.38518,0.9061,0.89607,-0.6059,0.40665,-0.096697,0.55841,0.28147,-0.74848,-0.2181,-0.3824,-0.37111,0.3637,0.12705,-0.12742,-0.66541,-0.17073,0.35774,-0.22807
0.97208,0.2176,0.64801,-0.7374,0.82255,-0.76169,0.96852,0.52315,0.35366,0.72422,-0.82858,-0.62741,0.35544,0.74208,0.11996,0.06918,-0.88396,0.62043,-0.65869,0.63144,-0.88328,0.13853,-0.82848,0.29865,-0.56811,-0.65595,-0.83555,-0.20334,0.0026162,0.22786
-0.82331,-0.62576,0.93095,0.92891,-0.81308,-0.54128,0.63635,0.10392,-0.34346,-0.57273,-0.65306,0.43972,0.19514,-0.30999,-0.26178,0.62155,0.74601,0.96962,0.62865,-0.15631,0.89654,-0.51628,-0.86833,-0.35949,-0.34236,0.49727,-0.54505,-0.11697,-0.70321,-0.23993
0.84178,-0.52776,0.56007,0.99777,0.226,0.86613,-0.29796,-0.2277,-0.62431,0.88135,-0.75009,-0.92496,0.27559,0.17749,0.58287,-0.10904,-0.456,0.49635,0.6291,0.012362,-0.27382,-0.072298,-0.067579,0.72097,0.55882,0.55899,-0.5739,-0.19249,0.046851,0.96707
0.55036,0.97095,0.8145,0.13342,0.10394,-0.030949,0.04427,-0.61369,-0.041055,-0.008743,0.23591,-0.014662,-0.44763,0.33426,0.021704,0.53428,0.61141,-0.36395,0.15047,0.54667,0.55419,0.46861,-0.65661,0.67927,0.88599,-0.89556,-0.53839,0.28378,0.27613,0.74191
-0.5339,0.31206,-0.15403,-0.97064,0.26854,-0.24391,0.91874,-0.032145,-0.72287,0.74361,-0.56389,-0.38885,-0.66054,0.1322,0.67454,0.32825,0.67303,0.30262,0.0057229,0.60553,0.049282,0.90352,0.6762,0.47,-0.91739,-0.43942,-0.0030374,0.036187,-0.87862,0.55891
0.6695,-0.37623,0.066633,-0.58866,0.6169,0.57381,-0.60282,-0.022824,-0.39988,0.23659,0.22451,0.90854,0.3721,0.3274,0.28277,0.7028,-0.29593,0.24863,-0.32877,0.23742,-0.17951,0.94603,0.70487,0.42531,0.46776,0.10403,0.33383,-0.46209,0.62927,-0.011346
0.17976,-0.62119,0.46476,0.83265,-0.90348,-0.4324,-0.26061,0.77692,0.87486,0.47131,-0.088267,0.37641,0.96025,-0.57506,0.91908,0.32923,-0.93966,0.77433,0.12125,0.048629,0.95373,-0.98929,0.68105,0.62619,-0.33459,-0.038485,-0.49793,-0.43232,0.64005,-0.33518
0.25519,-0.70815,-0.80471,-0.38113,0.70827,-0.24624,-0.60203,0.75302,0.60966,-0.10912,0.017129,-0.93397,0.59489,-0.22079,0.41913,0.090734,0.95887,0.95264,0.19523,0.60916,-0.3883,-0.51912,0.58071,0.24253,-0.46765,-0.67556,0.83932,0.51277,-0.35208,-0.73361
-0.65861,0.51378,0.36161,0.39116,-0.96833,0.77526,0.44402,-0.42815,0.10691,0.43135,0.50437,-0.69147,0.32626,-0.49825,0.97024,-0.93081,-0.1756,0.091384,-0.23793,0.398,0.29415,0.43004,-0.48555,-0.11492,0.073296,0.028148,-0.32069,0.35664,-0.97815,0.32959
-0.65057,0.054534,0.31738,-0.47295,0.95901,-0.34598,0.14851,-0.56316,-0.07828,-0.10221,0.37305,-0.92855,0.54596,-0.68016,-0.3367,-0.81969,0.053517,0.20811,0.55954,-0.089103,0.76224,0.20444,0.33647,-0.53577,-0.14916,-0.9787,0.46575,0.84478,0.21949,0.69492
-0.90069,0.090169,0.34538,-0.04438,-0.80421,0.34251,-0.72309,0.41627,0.1103,-0.61562,-0.37426,-0.66815,-0.59958,-0.22695,-0.42206,-0.10919,-0.7268,0.29098,0.97137,0.7763,0.57619,0.75341,0.55408,0.7997,0.96831,0.55018,-0.57766,-0.055425,0.4767,-0.7716
-0.096428,0.90673,0.05645,0.14247,-0.87911,-0.48465,-0.26169,0.091971,-0.44043,0.73296,-0.40656,0.26896,0.32483,-0.78712,-0.46208,-0.83844,0.55749,0.42862,0.04984,-0.92219,-0.72532,-0.11685,0.67844,-0.3267,0.96,0.90589,0.53181,0.98466,-0.18119,0.49109
0.85064,-0.83862,-0.91648,0.49311,-0.16873,0.97183,0.19285,-0.61711,0.65469,-0.56991,0.046196,0.27798,0.32198,0.049063,0.33343,0.46419,0.11911,-0.99295,-0.97075,0.053621,-0.30449,0.3362,-0.72635,0.5481,0.98294,0.20651,-0.96451,0.80693,-0.2692,0.6586
-0.67619,-0.081646,-0.2131,-0.25801,-0.0091603,0.11143,0.65458,0.014569,0.39417,-0.96546,-0.83216,0.57278,0.36477,0.17213,-0.4605,0.73748,0.57754,0.85854,0.16166,-0.68928,0.17018,-0.3213,0.053027,-0.062855,0.55272,-0.50661,0.36131,-0.69773,0.71563,-0.49459
-0.054798,0.014432,-0.77017,-0.70123,0.19558,0.068541,-0.5831,0.46603,0.41314,-0.94899,0.88601,-0.52633,0.6973,-0.33584,-0.27376,0.12406,-0.039721,0.94532,0.098758,-0.49305,0.17755,-0.661,0.57035,-0.10644,-0.37287,0.21155,0.46295,0.49827,0.99146,-0.16909
-0.37721,0.74533,-0.87023,-0.12512,0.99818,0.56208,0.68848,0.82654,0.35432,0.89827,0.98094,-0.97421,0.99949,0.27295,-0.78184,-0.17737,-0.05458,0.91917,0.28115,0.16482,-0.1315,0.38315,0.91663,-0.57941,-0.74139,0.10125,0.44054,-0.59404,0.81915,-0.97168
0.84899,-0.61919,-0.73578,-0.38608,-0.21754,-0.44957,0.80756,0.39252,-0.97143,0.20918,-0.57107,-0.64045,-0.39456,-0.33927,0.94625,0.91309,0.057237,-0.2042,-0.45713,0.72946,-0.65707,-0.027207,-0.60363,-0.068016,0.49415,0.72524,-0.297,0.62849,0.45635,0.14235
-0.9778,-0.026554,-0.77713,-0.97025,-0.75168,-0.1781,0.027,-0.78869,0.27446,-0.68277,0.48705,-0.21391,0.67871,-0.78767,0.53583,0.53144,0.89968,0.45812,-0.059037,0.17261,-0.33514,-0.15561,-0.33144,0.97044,0.36844,-0.5585,-0.25693,-0.19297,0.20402,-0.22289
-0.48719,0.63942,-0.9561,-0.73064,0.39732,0.4469,0.28744,0.76529,-0.79498,0.58194,0.47247,-0.83185,-0.20404,-0.95515,-0.20571,0.31753,0.58433,0.44,-0.27745,-0.79107,-0.88057,-0.50754,0.11242,-0.29733,0.58442,0.096359,-0.032185,0.45256,-0.99782,0.65996
-0.70753,-0.97929,-0.73396,0.11907,-0.4547,-0.92307,0.36222,0.1109,0.12893,-0.30051,0.93014,-0.41869,-0.75651,-0.92042,0.99924,-0.50038,-0.51502,-0.78155,-0.30557,0.41282,0.31826,-0.028991,-0.78072,-0.2987,-0.44631,0.39423,0.6709,0.042933,-0.45186,0.079195
-0.96454,-0.25473,-0.013814,-0.097228,-0.48686,0.96255,0.66881,-0.022345,0.18526,0.91448,0.07995,-0.72381,0.31001,0.0029443,0.67008,0.58065,0.26694,-0.61478,-0.46226,0.36895,0.10261,0.698,0.13201,0.92153,0.89346,-0.88168,-0.38484,0.1395,-0.26882,-0.48244
0.6948,0.33133,-0.97415,-0.89834,0.16123,-0.26325,0.62048,-0.60322,0.2734,-0.40731,0.91521,0.14383,0.81347,0.74005,0.61986,-0.96545,-0.065592,-0.28608,0.4604,-0.76246,-0.020283,-0.90245,-0.080081,0.37882,-0.84508,-0.47336,-0.17852,0.45259,-0.58335,-0.071957
-0.83748,0.45919,-0.73729,-0.98322,-0.92725,0.843,0.21621,-0.52619,0.6117,0.62554,-0.24849,-0.34451,-0.20682,-0.79755,-0.94338,0.026167,-0.045936,-0.076607,-0.52195,0.28017,0.31937,0.98995,-0.70977,-0.94852,-0.24343,0.52643,-0.57671,-0.084139,-0.49848,-0.98716
-0.67065,0.16214,0.54362,0.03675,0.28687,-0.11515,0.23076,-0.91303,-0.62711,0.96338,-0.60822,-0.93976,0.44475,0.45395,0.60359,-0.26936,-0.87457,0.71378,0.39847,-0.17935,-0.35207,0.92735,0.46818,0.90023,0.35525,-0.33301,0.66108,0.70443,0.50313,0.56033
-0.54242,0.42883,-0.57655,-0.035911,-0.65036,-0.068955,0.38021,0.55703,0.24364,0.61058,-0.75096,0.94933,-0.45968,-0.18167,0.71778,-0.76772,-0.25173,-0.89714,0.86597,-0.81454,-0.66826,-0.69947,0.33002,-0.84271,-0.066902,-0.48274,-0.68904,-0.13209,-0.41653,-0.66059
-0.93955,0.90196,0.062722,-0.95727,0.79399,-0.16481,-0.50719,-0.14561,-0.0086185,-0.77586,0.64521,-0.83059,-0.45123,-0.65214,-0.84421,-0.60678,0.57314,0.94038,-0.95245,0.066836,0.81774,0.98976,-0.12826,-0.18027,-0.12539,-0.96632,0.28066,0.91542,0.6719,0.68881
-0.86065,0.050127,-0.2131,0.28463,0.59396,0.70115,0.38559,0.97155,0.22683,-0.37946,0.39567,0.85996,-0.17445,-0.9489,0.8502,0.097757,-0.85811,-0.48797,0.37591,-0.65024,-0.27765,-0.7357,0.66624,-0.51655,-0.54187,-0.63319,-0.036431,-0.73971,-0.70923,-0.085235
-0.94298,-0.4949,-0.94788,-0.14873,-0.58997,0.07493,0.086751,-0.80162,-0.21812,-0.36055,-0.047425,-0.15671,0.78999,-0.68614,0.6254,-0.11572,-0.055504,-0.77505,-0.46757,0.17036,0.59941,0.32786,-0.76701,-0.68129,0.59704,-0.17089,-0.057977,0.047263,0.018851,0.48361
-0.32867,-0.39959,0.15771,-0.59081,-0.61262,0.70185,-0.65187,0.96322,-0.51303,0.034702,-0.44655,-0.63141,0.10435,-0.43148,-0.19669,-0.72645,-0.37077,0.98465,-0.45838,-0.50612,0.80122,-0.19868,0.30584,0.29558,0.9493,-0.71953,0.77679,-0.74992,0.98928,-0.89673
0.57083,-0.66175,0.68925,-0.39034,-0.19185,0.93093,0.82333,-0.53193,-0.539,0.87135,0.69366,0.5356,-0.035061,-0.093153,-0.060699,-0.68407,0.54724,-0.61153,0.68794,-0.66533,-0.72723,0.85194,-0.50406,0.54969,-0.42445,0.46043,-0.69724,-0.10086,-0.61569,0.52795
-0.015457,0.95188,-0.88632,0.36121,0.49861,-0.35371,-0.080654,0.16831,0.65528,0.75666,0.22076,-0.56894,-0.66584,0.51823,0.89374,0.50801,0.47653,-0.37502,-0.61438,-0.63772,0.042014,0.69997,0.94039,0.077114,0.86989,0.21267,-0.375,-0.29961,0.71305,-0.10516
-0.25588,0.93167,0.73007,-0.65502,0.95984,-0.012276,0.047179,-0.45189,0.43014,0.7114,0.47276,-0.42281,-0.75737,-0.79503,0.80795,-0.73562,-0.25485,0.5954,0.88042,-0.65728,0.43528,0.80641,-0.98094,0.43091,0.87633,-0.49958,-0.9588,0.072257,-0.86452,0.58224
0.13207,-0.64303,-0.76508,-0.54371,0.82649,0.61213,-0.38514,0.75214,-0.2843,-0.4023,0.53313,0.71665,0.52251,0.6131,-0.67389,-0.90261,0.25143,-0.32616,0.58737,0.99065,0.41891,-0.032189,0.85562,-0.99276,0.1151,0.65125,0.55289,0.404,-0.7088,-0.073978
-0.76378,-0.89189,-0.87379,-0.77135,0.21092,-0.97036,0.68542,0.055682,0.99499,-0.3302,0.40696,0.1267,-0.46927,0.25474,0.28959,0.91956,0.33115,0.072967,0.74448,0.85196,0.30402,-0.42677,-0.038524,-0.15997,-0.31391,0.33666,0.97258,0.14273,-0.21439,0.25845
0.44782,-0.19587,0.51039,-0.61434,0.5397,-0.38952,-0.5101,0.96174,0.08263,0.41313,0.34765,-0.99536,0.13172,-0.47741,0.33668,-0.19271,-0.12247,0.036411,0.66251,-0.0053924,-0.093203,0.19815,0.21423,-0.23046,-0.68349,0.65145,0.13602,-0.040559,-0.99074,-0.51447
0.62027,0.74682,0.45376,-0.0071624,0.28402,-0.8617,0.58541,-0.19506,0.65571,0.15319,0.80526,0.91662,0.51721,0.48618,0.30124,0.98257,-0.037643,0.73408,0.13585,0.90091,0.98273,-0.53105,0.34999,-0.68105,0.86875,0.17711,-0.20272,0.080336,-0.992,0.13344
-0.17465,-0.68507,-0.50975,0.13382,0.20926,0.67604,-0.83116,0.91343,0.2863,-0.082398,0.88667,-0.20821,0.80777,0.66259,-0.21516,-0.088341,-0.87271,-0.23603,-0.52549,0.29344,-0.52419,0.57188,0.70139,0.89893,-0.042512,0.86649,0.61986,-0.5742,0.40974,-0.39798
0.65927,0.47787,-0.41517,-0.13422,-0.68333,0.40122,0.67023,-0.76977,0.77296,-0.89555,-0.76655,-0.31746,-0.68964,-0.35252,-0.17462,-0.70367,-0.908,-0.58517,0.24658,-0.15937,0.0009583,0.77023,-0.73983,0.6326,-0.82732,0.8178,0.10227,0.82364,0.10316,0.56058
0.37345,-0.59751,-0.52018,0.29614,-0.59374,-0.58846,-0.21441,-0.35902,0.29662,-0.60667,0.97307,0.95075,0.8364,0.19908,-0.33153,0.85204,0.17057,-0.63348,-0.17799,0.6599,0.68128,0.95827,-0.63565,-0.65775,0.15563,0.78819,0.71072,-0.086966,-0.14987,0.52897
0.99461,0.29001,0.14027,0.81256,-0.22648,-0.027115,0.13227,0.95535,0.10273,-0.19538,0.13854,0.17828,-0.45858,-0.63916,-0.75493,0.27654,0.11929,-0.89594,0.20221,0.48106,-0.20702,0.13561,-0.27032,0.22432,-0.10431,-0.23741,0.60404,-0.30394,0.04737,0.99164
-0.34814,0.70785,0.71339,-0.7766,0.28066,0.87101,-0.79151,0.39817,-0.50203,0.52006,-0.020976,0.88764,-0.24909,-0.96726,-0.38299,0.14322,0.74151,0.18886,0.24021,-0.10769,0.15916,-0.60753,0.31518,0.37576,0.71167,0.37972,0.11235,0.23381,-0.47827,0.67195
-0.6516,0.28584,0.79848,0.59638,0.2138,-0.82965,-0.67453,-0.10754,-0.98643,-0.61101,-0.34913,0.368,0.21792,-0.54514,0.51164,-0.71739,0.071116,0.25743,0.14757,0.1082,-0.83409,-0.10066,-0.8517,-0.82227,-0.9387,-0.94565,0.94744,0.66183,0.80552,0.28548
-0.82372,-0.68376,0.46635,0.72714,0.70381,0.25763,0.70444,-0.69931,0.39791,-0.16993,-0.71483,-0.21409,-0.87502,-0.18296,-0.76078,0.71425,-0.85008,-0.18838,0.32755,0.22204,0.81687,0.14794,-0.083046,-0.55173,-0.46242,0.19718,0.55776,-0.22088,0.40853,-0.90392
-0.98365,-0.10738,-0.19361,-0.82812,-0.41651,0.43955,-0.43586,0.57046,0.21936,-0.21543,0.99002,-0.0070479,0.49908,-0.33246,-0.79719,0.023997,0.70964,-0.42414,0.041176,0.4803,0.71467,-0.9804,0.9021,0.18432,-0.037594,-0.38689,-0.042327,-0.35021,-0.27043,-0.29371
