-0.44098,-0.97069,0.041999,0.88539,0.84222,0.4118,0.16376,-0.48646,0.99914,0.79259,-0.23251,0.39071,0.89979,0.77872,-0.19989,0.80391,-0.24563,-0.69943,-0.66701,-0.57659,0.055899,0.52668,0.17203,0.43747,0.34991,-0.75365,-0.15913,-0.35073,0.6353,0.88999
-0.52046,-0.52436,-0.63017,0.2911,-0.55139,0.93311,-0.044941,-0.46705,0.39116,-0.6744,0.18382,0.31411,0.39082,-0.9314,0.9185,-0.33378,0.52019,0.095445,-0.020477,0.36724,0.23925,-0.52384,-0.92438,0.3097,-0.57771,0.49345,-0.617,-0.0074516,0.90697,0.50679
-0.29069,-0.53617,0.18785,0.63022,0.71165,0.45625,-0.74522,0.12042,0.11583,-0.86875,0.24832,-0.67098,-0.97971,-0.24118,0.30407,0.41732,0.83469,0.84883,-0.66498,-0.642,0.16506,0.59534,0.91481,0.69001,0.88528,0.94598,0.33987,0.89655,-0.0069348,-0.54491
-0.30549,0.80768,-0.98612,-0.78977,0.80931,0.66964,-0.3892,-0.83298,0.7831,0.50913,-0.63872,-0.9966,0.89375,0.68058,-0.30884,-0.64752,0.36881,0.79535,-0.28611,-0.37656,-0.79756,0.13872,0.5838,0.58943,-0.16599,0.78455,-0.63702,0.15932,-0.94646,0.29667
-0.5426,-0.27862,0.97027,-0.75639,0.16683,-0.73077,-0.55883,0.4602,-0.079167,0.63799,0.87302,0.32481,0.32288,0.91791,-0.31296,0.3307,0.22491,0.84691,0.92743,-0.43761,0.17594,-0.28426,-0.22706,-0.31491,0.59092,-0.71662,0.24269,-0.92211,0.76452,-0.13656
0.56938,0.407,-0.030684,-0.65054,-0.34322,0.46524,0.26044,-0.1825,-0.089396,-0.28267,0.93714,0.29993,-0.54385,0.9709,0.88003,0.1778,0.78345,0.47595,0.074917,0.68555,-0.13907,0.3278,0.60231,-0.96398,0.41411,-0.86188,0.58758,0.74426,0.93575,-0.3719
-0.50083,0.079605,-0.61471,-0.63353,-0.051297,-0.048428,-0.62502,-0.21075,0.38422,-0.9151,0.45068,0.4566,-0.64032,0.27216,-0.45721,-0.89571,0.35847,-0.16341,0.59997,0.99144,-0.4781,0.66478,-0.54363,0.99384,-0.99405,-0.1577,-0.74371,0.60161,-0.040666,0.4953
-0.45756,0.12887,-0.48177,-0.25738,-0.58681,0.10365,0.84834,0.9679,0.049822,0.41921,0.42144,-0.52376,-0.070617,-0.10478,0.6258,-0.97762,0.37612,0.46351,0.30472,0.68017,0.54515,0.16995,0.88687,-0.69165,-0.093767,-0.62216,-0.0022458,-0.93641,-0.83719,-0.56051
-0.99803,-0.50414,-0.95044,0.84827,0.012876,-0.21039,-0.42216,-0.90086,-0.70041,-0.027132,0.12407,-0.71254,0.27204,-0.54011,0.55587,0.019182,-0.75044,-0.62655,0.8763,-0.5798,-0.94565,-0.13472,0.86849,0.34044,-0.48815,0.36024,-0.48185,0.95922,-0.49913,0.56204
0.56331,0.070775,-0.60068,-0.8209,-0.22261,-0.30371,0.54048,-0.74233,0.67887,0.013268,-0.63873,0.063691,-0.61801,-0.41153,0.84624,-0.11467,-0.98006,-0.41612,-0.71002,0.32946,0.47028,0.62973,-0.67954,0.70038,0.022849,-0.97138,0.88141,-0.44127,-0.64868,0.21106
-0.34298,0.97792,-0.93831,0.72851,0.14733,0.13532,0.85366,-0.57098,0.78273,0.69229,-0.23369,-0.70921,-0.5841,0.53957,-0.92085,-0.2655,-0.59882,0.099082,-0.89771,0.9703,0.91131,0.65237,-0.88796,0.33815,-0.65022,0.3657,-0.27203,0.68608,0.859,-0.12236
0.64384,0.49896,-0.92995,-0.81177,0.34301,0.093943,-0.71709,0.41294,-0.13061,-0.68187,0.089724,0.57069,0.01354,-0.83705,0.10572,0.87224,-0.12586,-0.81453,-0.57826,-0.73906,0.31199,-0.29162,0.87961,-0.076346,0.38748,-0.24755,-0.6512,0.55427,0.16007,-0.092782
-0.65296,0.0029987,-0.85984,-0.68113,0.35524,-0.92799,0.95528,0.35747,0.68599,-0.5611,0.39439,0.21733,-0.7318,0.95453,-0.90056,0.48685,-0.8842,0.16275,-0.27909,0.28917,0.22567,-0.80044,0.42911,-0.24855,0.15913,-0.28848,0.72966,-0.21724,0.69198,0.091924
-0.9742,-0.49282,0.34677,0.30878,-0.11241,-0.86905,-0.51883,0.10224,0.47752,-0.56826,0.66184,-0.93045,-0.67534,-0.99367,-0.0254,0.25006,-0.78873,-0.26127,0.012245,-0.022311,-0.31893,-0.54435,-0.084446,-0.96423,0.65679,-0.47907,-0.076695,0.28612,0.27997,0.5809
0.25138,-0.37414,0.4117,0.42017,-0.43443,0.045375,0.42467,-0.64222,0.4949,-0.47211,0.31013,-0.65559,-0.13781,0.38044,0.24861,0.56892,0.23695,-0.9424,0.86243,-0.05574,-0.59648,-0.019975,-0.6185,-0.80983,0.99434,-0.71202,-0.057214,-0.85806,0.31389,0.087672
0.6764,-0.1059,0.20806,-0.44631,0.6431,-0.51863,-0.67758,-0.92603,-0.54166,0.6169,0.25793,-0.2627,0.41434,-0.85102,0.43236,-0.39015,0.98351,-0.58533,0.65701,-0.40978,-0.51291,0.42467,0.41833,-0.65711,0.079939,-0.41149,0.021781,-0.27733,0.25438,0.91204
-0.23978,-0.65856,0.12487,0.84023,0.11974,-0.20427,0.72342,0.93693,-0.84482,0.58001,-0.80448,0.87096,-0.23519,-0.035721,0.6017,0.86326,0.087679,0.57336,-0.58936,0.31341,-0.43984,0.36373,0.28686,-0.95315,-0.6303,0.14596,0.94601,0.37285,0.73426,-0.37338
-0.034454,0.76256,-0.81978,0.98202,-0.71693,-0.81994,-0.80691,-0.9493,0.94448,0.38623,0.35083,-0.041391,0.45091,0.057396,-0.64377,0.75613,-0.39679,-0.58597,0.52762,0.55116,0.25521,-0.017457,-0.038793,0.25167,-0.28904,0.90086,-0.48549,-0.67303,-0.86174,-0.30757
0.83134,-0.46852,-0.65269,0.0010689,-0.8895,0.030325,0.10047,-0.31679,0.0045806,0.00059723,0.72018,0.48292,-0.40533,-0.91569,0.7505,0.63489,-0.92948,-0.65838,0.072688,0.32369,-0.13489,0.04014,-0.58526,-0.41209,-0.57194,0.2916,-0.94261,-0.20807,0.44596,0.89358
0.82906,-0.68086,-0.54584,0.084059,0.956,0.20631,0.96406,-0.72972,0.91114,0.027309,0.49935,-0.91491,-0.0045127,0.47782,0.54333,0.78258,0.98388,0.87958,-0.34473,0.11662,-0.35007,0.20046,0.65759,-0.59771,0.93525,-0.16018,0.010911,-0.83947,0.84056,0.48939
0.88374,-0.47363,-0.71512,-0.70462,-0.39544,0.18018,0.91693,-0.92488,-0.29085,0.55971,-0.57545,-0.5,-0.10229,-0.061021,-0.25796,-0.36239,-0.30285,0.42325,-0.23131,-0.52366,0.10253,0.38823,-0.21669,0.48799,0.79495,-0.53056,-0.98099,0.92691,0.88794,-0.38141
-0.47543,0.50771,-0.71409,0.99118,-0.67988,0.051693,-0.039574,0.15064,-0.29196,0.1976,-0.77463,-0.80523,-0.3432,-0.93469,-0.094709,0.28336,0.48131,0.24589,-0.095732,-0.72152,0.19708,0.0030965,0.43539,-0.21072,0.84213,-0.87532,0.67618,-0.035648,-0.29823,0.12213
-0.82013,0.60762,0.86351,-0.32,0.48644,0.60301,-0.00069928,-0.14823,0.68601,0.15168,-0.75417,-0.50067,-0.70204,0.63771,0.64033,-0.42112,-0.81485,0.49521,-0.63185,-0.43395,-0.079197,-0.90174,-0.7769,-0.72073,-0.973,0.96736,0.22485,-0.42544,0.38481,-0.43913
-0.98923,-0.71784,-0.22797,0.38002,-0.27095,-0.92661,0.19891,0.46423,-0.65715,-0.14627,0.028798,-0.4483,0.022614,0.72173,0.87184,0.24064,0.31029,-0.57033,0.088998,-0.36321,-0.34112,-0.39439,0.88897,-0.34086,-0.71125,-0.59711,-0.54131,0.67432,0.41419,0.087224
0.037215,-0.62505,0.9135,-0.36144,0.67217,-0.64711,-0.83198,0.37138,-0.1348,-0.97457,0.72031,0.14313,0.82942,0.05381,-0.63593,0.15041,0.91648,0.48622,-0.80544,0.94588,-0.93103,0.82358,0.091452,0.68347,-0.42264,0.048942,-0.19739,-0.53034,-0.47105,0.40418
0.75763,-0.32153,-0.15225,-0.022893,0.33063,0.07216,-0.15058,-0.76594,0.4905,-0.93557,-0.35435,0.37106,0.83061,-0.69733,-0.51455,0.99785,0.46354,-0.26903,-0.56164,-0.13379,-0.37307,-0.32072,-0.45455,0.59924,-0.62948,-0.87183,-0.90877,-0.44093,0.62196,0.18351
0.82667,0.89718,-0.67027,-0.27875,-0.51016,-0.55128,-0.30733,-0.37711,0.35072,0.12315,-0.43648,-0.016099,0.97452,0.31458,0.022253,0.91173,-0.034282,-0.059527,-0.81328,-0.90634,-0.070542,-0.57144,-0.09019,-0.6003,-0.31687,0.64393,0.82228,-0.34213,0.0087672,-0.13526
0.64228,0.76441,0.71201,0.090878,-0.74621,0.25555,-0.38082,0.39198,0.65919,-0.60953,0.95826,-0.97356,-0.02197,0.1782,-0.53998,-0.29207,-0.79714,-0.56237,0.41144,0.35353,0.61643,-0.90284,-0.59447,0.031513,-0.46977,0.63778,-0.94729,0.36537,0.97437,0.7802
-0.19418,0.5057,-0.42961,-0.45428,0.81833,-0.3702,0.46258,0.13754,-0.005766,0.039335,-0.1175,-0.53717,0.46807,-0.4296,-0.15235,-0.6529,-0.61355,0.56335,-0.43949,0.61205,-0.1912,0.095325,0.76171,-0.36288,-0.21788,0.97529,0.22555,-0.015674,-0.6177,0.32581
0.89481,-0.50972,-0.56594,-0.65051,-0.76457,-0.16304,0.75894,0.52196,-0.90238,0.63548,0.86382,0.86726,0.57535,0.96922,0.37778,-0.0015467,-0.42404,0.90104,0.38921,0.83993,0.39771,0.99789,0.10966,0.2398,0.98986,0.10205,0.40052,0.61477,0.34835,0.75852
0.86874,-0.23658,-0.81466,0.47565,-0.86521,-0.42178,-0.031737,-0.97244,0.93315,-0.030294,-0.95349,0.32823,-0.85499,-0.26733,-0.83582,0.6382,-0.90527,-0.56004,-0.25613,-0.57005,-0.18714,-0.84746,-0.19991,-0.43762,-0.67029,-0.025424,-0.064596,-0.65284,-0.52066,0.0091415
0.24343,-0.20271,0.23294,-0.78744,0.24083,0.95522,0.32329,-0.58608,-0.4068,0.6853,-0.35393,0.00094149,-0.903,-0.7208,-0.47373,0.90745,0.52525,-0.14087,-0.8329,0.93398,0.63577,-0.54112,-0.12055,0.99984,-0.23325,0.17068,-0.94366,0.3349,-0.017475,0.0011918
-0.56108,-0.11514,-0.11279,-0.91506,-0.18597,0.1741,-0.63104,-0.37092,-0.36666,-0.43683,0.30257,-0.023748,0.75036,0.2202,0.10888,0.43308,0.42452,0.24728,0.37578,0.90454,0.17241,0.29192,0.94637,-0.58333,0.12124,-0.67854,0.62528,0.42698,-0.18546,0.12075
0.87493,0.38527,0.37298,-0.6552,0.91037,0.52128,-0.89166,0.32054,0.88342,-0.92814,0.011933,-0.1028,-0.017521,-0.80009,0.93504,-0.81948,-0.35221,-0.87844,-0.80719,-0.8084,-0.14723,0.016175,-0.7734,0.57838,-0.68589,-0.5845,-0.67927,0.92749,0.68264,-0.092328
-0.13361,-0.62171,0.33525,-0.30764,-0.00019878,0.37319,0.33915,-0.92249,0.82606,0.99208,0.35274,0.83451,-0.30527,0.81535,0.99135,0.62539,0.3724,0.57103,0.28469,0.18266,-0.8554,-0.92801,-0.32631,0.41387,-0.99081,-0.65079,0.82447,0.62492,0.50174,-0.473
-0.39934,-0.66153,-0.27513,-0.14399,0.14179,0.57092,-0.1721,0.78429,0.7976,0.25553,-0.4195,-0.68777,0.17403,-0.10561,-0.53541,-0.96333,-0.12016,0.34316,0.59882,0.8604,0.72558,-0.86266,-0.99255,0.72607,0.75452,0.9274,-0.88949,-0.45949,0.3547,0.19614
-0.96225,0.86253,0.84806,0.3529,-0.45905,0.30776,0.13794,0.04188,-0.34846,0.92111,0.68037,0.12352,-0.27113,-0.47498,0.73908,-0.36517,-0.13859,-0.92653,-0.053193,-0.36734,0.82136,-0.28577,-0.81625,0.88177,0.063559,-0.98122,0.21063,0.7443,-0.02546,0.86993
-0.60567,-0.66496,0.78023,0.20248,-0.65325,-0.19913,-0.88085,-0.45028,-0.15483,0.72754,0.40791,-0.031926,0.73712,0.27542,0.35643,0.26586,-0.80066,0.12364,-0.26699,0.99402,0.66166,0.7738,-0.76349,-0.59234,-0.3026,0.29403,-0.5969,0.53155,-0.37539,0.27981
0.27875,-0.71727,0.8453,0.20248,0.43978,-0.27314,-0.77937,0.67559,-0.091567,-0.27612,-0.67515,0.57976,0.35673,-0.71338,0.016405,0.55753,-0.12152,-0.25162,0.60005,0.16181,-0.29967,-0.09301,0.29341,0.97629,-0.13965,-0.78872,0.61241,-0.65521,-0.63499,-0.19775
-0.59007,0.16495,0.67674,-0.7879,-0.5989,-0.7262,0.40779,-0.40018,-0.50175,-0.64368,-0.2229,0.90975,0.11064,-0.18199,0.049306,-0.6101,-0.45068,-0.21087,0.47866,0.26649,0.22425,0.69634,0.23335,-0.33457,-0.6731,0.49863,0.8804,-0.75906,-0.91678,0.8745
-0.74302,-0.45392,0.23915,-0.42455,0.2721,-0.8531,-0.22485,0.042433,-0.26709,0.4365,-0.19295,-0.92401,-0.32872,0.74076,0.18131,-0.59221,-0.043625,0.71218,0.61217,-0.99874,-0.13824,0.19747,-0.65815,0.10747,-0.13131,0.53209,-0.034351,-0.40998,0.37628,-0.96708
-0.59866,0.94702,-0.75278,0.40229,0.2966,-0.87648,-0.41764,-0.5651,-0.10582,0.57403,0.052138,0.95781,-0.39725,-0.72202,0.21364,-0.16802,0.48342,0.53655,0.43368,-0.34773,-0.39586,-0.66532,-0.58881,-0.97379,-0.93248,0.687,0.01478,0.1167,-0.094523,0.1755
-0.71997,0.31167,0.68057,0.90216,-0.62896,0.3065,-0.82486,0.59208,0.23494,-0.81131,0.24711,0.57752,0.24303,0.64421,0.95373,-0.48917,0.94432,-0.29641,-0.88395,0.92612,0.068665,0.23659,0.1443,0.44336,0.031837,-0.7192,-0.94716,-0.76082,0.76411,0.88854
0.8618,0.45012,-0.71851,0.78096,0.81812,0.33988,-0.86039,0.63258,0.14992,0.59661,0.71706,0.96773,-0.065573,0.50604,-0.31896,0.53987,-0.35929,0.5033,0.20616,0.22992,-0.35757,0.6683,-0.7182,-0.5643,-0.9036,-0.056724,-0.46669,-0.4982,-0.58773,-0.34012
0.61651,-0.46289,-0.92076,-0.25638,-0.19633,0.45249,-0.088399,0.12942,-0.20266,-0.29387,0.6309,0.12669,0.53776,0.70154,-0.58561,0.31327,-0.37511,0.32948,0.75795,0.1926,0.49121,0.41672,-0.4301,-0.22289,-0.6892,-0.86769,-0.42316,-0.67442,0.97281,-0.3473
0.59616,-0.29631,0.25466,0.19522,0.86958,0.37172,-0.87749,0.97579,-0.76115,0.1049,-0.30857,-0.481,-0.81704,-0.13445,0.41401,0.57423,-0.74315,0.40924,0.88595,-0.32656,-0.77042,-0.62116,-0.65549,-0.79031,-0.87951,-0.97005,0.18295,-0.86843,-0.85591,-0.72047
-0.29915,-0.48478,0.89651,0.59741,0.7373,-0.14916,0.20833,0.81455,-0.65482,-0.66437,0.18358,0.50951,-0.71573,0.95075,-0.33985,0.16347,-0.8325,0.91834,0.52763,-0.54131,-0.52215,-0.20234,-0.55783,-0.46265,-0.0038852,0.41948,-0.3459,-0.35998,0.86764,0.92732
-0.99115,0.32013,0.25977,-0.098227,0.7105,0.27799,0.17688,-0.67725,0.66118,-0.65712,-0.21865,-0.77806,-0.53542,-0.89688,-0.53471,-0.53846,0.71844,0.743,0.53421,0.69228,-0.46961,0.22871,0.86731,-0.48715,0.73217,0.62856,0.51445,-0.17432,0.42886,0.63851
-0.84881,-0.63599,0.75091,-0.14104,0.4347,-0.52648,-0.26455,-0.16211,0.40645,-0.51295,-0.55286,-0.29864,-0.48921,0.60046,0.37665,-0.1325,-0.64792,-0.5764,0.96336,-0.84407,-0.51872,-0.18471,-0.76335,-0.77396,0.68155,0.60527,0.86675,0.82044,0.20046,0.5866
-0.73765,-0.90241,-0.19207,-0.69381,0.6644,-0.41186,-0.39041,-0.42869,-0.50591,0.17651,-0.037657,0.80341,-0.92128,0.83521,-0.63834,-0.54588,0.36069,-0.21519,0.4202,-0.25264,-0.51194,-0.029281,0.40732,-0.083902,-0.70106,-0.54255,-0.91881,0.59951,0.66867,0.41651
-0.031828,0.88551,0.31331,0.61425,-0.41171,0.10185,-0.036645,0.35751,-0.30311,-0.55227,-0.46092,-0.0048377,0.92676,0.41511,-0.15528,0.47226,0.54893,0.4286,-0.93947,-0.9054,0.37656,-0.79328,0.77542,0.38684,0.34384,-0.35433,-0.16003,0.87844,0.62028,0.12832
0.033309,0.37702,0.71551,0.010628,-0.08152,-0.12273,0.55373,0.89338,-0.22183,0.64985,0.60544,-0.15662,-0.82913,0.52023,0.84812,-0.96994,0.58392,0.17508,0.67808,-0.95554,-0.21601,0.81637,-0.92494,0.98741,0.69978,-0.51802,-0.088462,0.59174,-0.90045,0.32438
-0.19397,-0.57544,-0.66194,-0.15454,0.7958,0.042586,-0.49604,0.62845,0.9358,0.53023,-0.92581,0.33862,-0.39531,-0.24466,0.65301,-0.61271,0.74145,-0.072684,0.77789,-0.61412,-0.79935,0.14396,0.87812,0.35095,-0.13711,0.47151,-0.15912,-0.62664,0.090335,0.14685
0.51295,0.024291,0.78554,-0.63526,-0.17486,-0.70231,-0.77531,-0.77563,0.96527,0.2254,-0.32,-0.6264,-0.15979,-0.83195,-0.88706,0.47798,0.78225,0.15833,-0.065977,0.15976,0.5447,-0.92676,-0.25074,0.22692,-0.51496,0.13365,0.94811,-0.2152,-0.31929,0.049303
0.52989,0.41737,0.59558,-0.49814,-0.073422,0.49805,-0.37679,0.04486,-0.54961,-0.54346,0.2089,0.26732,-0.093353,0.22667,0.026293,-0.12382,-0.65765,-0.97299,-0.89124,-0.017365,-0.55057,-0.95444,-0.5596,-0.061987,0.8327,-0.20015,0.43544,-0.073301,-0.70203,-0.37678
-0.9761,0.83511,0.41076,0.53579,-0.039168,0.44152,-0.26834,-0.62617,0.23866,-0.83875,0.32695,-0.1873,0.090957,-0.59622,0.12569,-0.95209,-0.88109,-0.65292,-0.20255,-0.2834,-0.94362,0.50672,-0.1763,-0.40748,-0.5083,-0.25568,0.81918,0.11689,-0.33121,-0.19089
-0.67255,-0.43348,0.84993,-0.20923,-0.4347,-0.19152,0.097652,0.55554,0.88812,0.93676,0.7555,0.11439,0.60659,0.26643,0.83553,0.3052,0.073269,-0.13821,0.56918,-0.60064,0.11335,0.20861,-0.88739,0.1746,-0.58199,-0.74456,0.082064,-0.55989,0.32532,-0.39118
0.34683,0.38528,-0.012113,0.59842,0.51167,-0.70366,0.8426,0.8712,-0.81188,-0.17753,-0.14554,-0.56949,0.75093,0.63379,-0.10624,-0.70354,0.0091664,-0.016095,-0.098893,-0.99333,0.81138,0.24874,-0.16432,0.35756,-0.76727,-0.35564,0.99735,0.65482,0.389,-0.37225
-0.24675,0.18571,0.24848,-0.24449,-0.0031712,-0.8955,-0.13169,0.71467,-0.71039,0.93589,0.31705,-0.019641,0.53613,0.90467,-0.46738,-0.70717,0.80078,-0.8924,0.99503,-0.8741,0.42775,0.48699,-0.14477,0.36899,-0.95971,0.24644,-0.96611,0.1347,-0.069023,-0.48539
0.6792,-0.021753,-0.91498,0.54054,0.30174,0.93207,0.57698,-0.70908,-0.97238,0.13297,-0.061457,0.37936,-0.2013,0.78518,-0.79935,0.95747,0.65443,0.61472,0.26027,-0.7122,0.95644,0.10245,-0.64228,-0.34356,0.3993,0.26348,-0.87035,-0.090446,0.29887,0.28636
-0.6325,0.6188,-0.37362,0.23412,-0.15502,0.83282,0.77783,0.4696,0.15723,0.16642,0.66188,0.75154,0.55425,0.49295,-0.46947,0.66047,0.85103,-0.37642,0.74474,-0.5517,0.38818,-0.60065,0.39876,0.67618,0.73476,-0.61459,0.42286,0.29759,-0.49188,-0.63084
-0.94107,0.89355,0.80985,-0.037498,0.72089,-0.70663,-0.54175,-0.3726,0.1936,-0.89482,-0.92975,0.03582,0.80723,-0.86651,0.7065,0.14459,0.48475,-0.83137,-0.61945,-0.71633,-0.021716,0.82069,0.0724,0.54313,0.37136,-0.48032,0.18431,-0.63596,-0.17844,0.78696
-0.2131,0.1333,-0.96628,-0.15352,-0.56507,-0.72343,0.75895,-0.90325,-0.0016376,-0.48625,0.66808,0.083625,-0.26568,0.20558,0.58212,0.39723,-0.97414,0.2735,-0.63323,0.45957,0.31927,-0.54991,-0.24097,0.33328,-0.052472,-0.065698,0.96599,-0.26192,0.97463,0.92721
-0.64162,-0.0071725,0.45419,-0.35563,0.85483,0.32878,0.70527,-0.2514,-0.11112,0.59435,-0.37962,-0.54558,0.33906,-0.42579,-0.038375,-0.92046,0.55784,-0.88501,0.27738,0.47653,-0.36318,0.78716,0.30544,0.25352,0.59515,-0.97294,-0.32793,-0.22177,-0.59024,0.73489
0.4219,0.21006,-0.64976,-0.93257,-0.022714,0.24197,0.56786,0.8106,-0.65677,-0.65617,0.35368,0.93037,-0.73504,-0.0062833,-0.14735,-0.47488,0.45618,0.014129,-0.52592,0.081776,-0.28424,0.99496,-0.64849,0.44596,0.18826,-0.3934,0.17786,-0.0099932,-0.66922,0.6239
-0.34869,-0.68604,-0.91548,-0.21678,0.65342,-0.49877,-0.73485,-0.38386,0.63206,-0.30028,0.30983,0.81273,-0.19324,-0.47573,0.54004,-0.55618,-0.73106,0.48048,-0.91931,-0.12739,-0.22946,0.33557,0.95264,-0.6096,0.16381,-0.71718,0.35827,-0.38579,-0.32352,-0.87725
-0.89793,0.61671,-0.34215,0.014198,0.052254,-0.96324,-0.022611,-0.61519,-0.57957,-0.26427,0.22845,0.88956,-0.75063,0.038095,-0.21825,-0.69814,-0.36064,-0.79564,-0.96447,-0.11698,0.082765,-0.44182,-0.47918,0.98195,0.19956,0.16578,-0.50167,-0.54,0.95664,-0.54809
-0.82105,-0.5175,-0.64274,-0.93755,0.59239,0.27839,-0.54523,-0.2582,-0.44393,-0.14438,0.58906,-0.65805,-0.0068928,0.83161,-0.20934,-0.5782,0.85515,-0.0003361,-0.54701,-0.057095,0.61302,0.058638,0.019347,0.56319,-0.9778,0.38791,-0.78406,-0.97382,0.41104,-0.46539
-0.44589,-0.86184,0.24472,-0.12643,-0.58358,0.9689,0.42414,0.68678,0.07323,0.093544,0.54183,0.89182,0.38848,0.83513,-0.61961,-0.58053,0.47615,0.2877,-0.31204,0.88607,-0.14457,-0.86696,0.46048,0.39201,-0.0050595,-0.59435,0.91397,-0.83528,-0.94122,-0.5907
-0.050206,0.69875,0.89287,-0.54496,0.082501,0.6838,-0.51929,0.71786,-0.43616,-0.26679,0.36981,0.34169,-0.0033288,-0.23723,0.68845,0.77771,-0.84753,0.98936,0.30381,0.33583,0.18301,0.95567,-0.79672,-0.98487,-0.99108,0.56867,-0.55264,-0.45474,-0.57678,-0.27907
0.25489,-0.14064,-0.94452,0.32454,-0.15092,0.55632,-0.37904,0.27847,-0.39079,0.24412,0.92049,-0.10069,-0.5216,0.83741,0.68111,-0.99411,-0.48307,-0.69712,-0.26737,-0.087671,0.54762,0.83061,-0.73133,-0.31971,-0.69998,-0.33467,0.40071,0.49694,0.36998,-0.37499
-0.63262,0.040701,-0.28974,-0.82494,0.26858,-0.11303,-0.37556,0.6015,-0.73556,0.87871,-0.96256,-0.48684,0.077188,-0.65162,0.65878,0.8543,0.14452,-0.58001,-0.98556,-0.096222,-0.88005,0.6943,0.69453,0.73236,-0.094125,0.18013,-0.40096,-0.041324,0.090491,-0.99831
-0.84133,-0.77886,-0.43914,0.6822,0.51763,0.55169,0.84884,-0.13399,-0.538,0.30014,-0.3575,-0.53827,0.47636,0.12995,0.47152,0.55475,0.072447,-0.37366,-0.54186,-0.15915,0.69584,-0.56186,-0.62675,-0.81629,0.2103,0.99073,0.55342,-0.95887,0.20341,-0.022439
0.027494,0.96302,0.16519,-0.60734,-0.50361,-0.58228,0.74945,0.9781,0.31248,-0.5902,0.0082473,-0.67341,0.1214,0.32179,0.04721,-0.21186,-0.96453,-0.76627,0.99865,0.061671,-0.45202,0.36642,0.5048,0.27526,0.35073,-0.032237,-0.92266,-0.44764,0.9132,-0.9005
-0.0083774,0.095681,-0.23003,0.89773,-0.67417,0.74506,0.58163,0.68969,0.38335,0.49718,0.31696,0.055888,0.67702,0.77303,0.54613,-0.84434,-0.63611,-0.72148,-0.83557,-0.70067,0.50554,-0.27842,0.066884,0.32162,-0.96905,-0.07057,-0.58138,0.71811,0.0066632,-0.62838
-0.51955,-0.95394,-0.63633,0.8635,-0.68797,-0.12445,-0.87031,-0.27053,0.94988,0.80202,-0.84144,0.62969,-0.075826,-0.1887,-0.026343,0.011124,0.73522,0.5061,-0.88954,0.13894,0.079913,0.62868,-0.16262,-0.14283,-0.73575,0.9994,0.42184,0.9121,0.37428,-0.2913
0.078021,0.83459,0.091981,-0.98748,0.3561,0.56821,-0.58845,0.53401,-0.79186,0.89478,0.018182,0.54287,0.26248,0.68947,0.98013,-0.032127,-0.80752,-0.59885,-0.83863,0.076555,-0.28083,0.043687,0.44715,0.42175,0.91083,0.32937,0.50135,0.63828,0.3752,-0.1428
0.13745,-0.27905,0.69071,0.72524,0.53394,-0.72315,0.33986,0.16274,-0.17349,0.82738,-0.55575,-0.47158,-0.91765,0.4287,0.50433,-0.30224,0.77576,0.59658,0.4441,-0.10447,-0.045655,0.71236,0.65704,0.80372,0.94812,0.26217,-0.7701,-0.57348,-0.95888,0.9471
0.72498,-0.015242,-0.27088,-0.24991,-0.37451,-0.98217,0.23796,0.052996,-0.087743,-0.49615,-0.053489,-0.27479,-0.89394,-0.50808,0.0045972,0.51128,0.23353,-0.6481,-0.77632,-0.46109,-0.99348,0.37364,-0.52792,0.7138,0.50906,0.69854,0.10369,-0.81483,-0.73587,-0.070165
0.36322,0.0092944,0.14795,-0.78698,0.12953,0.34279,0.67557,0.75417,0.61764,0.83611,-0.81796,-0.32981,0.31961,0.49048,-0.17575,-0.31539,0.99514,0.90754,-0.48444,-0.20298,0.39457,0.31304,-0.35365,0.49965,0.44722,-0.86356,0.34163,0.1801,-0.046317,0.97064
0.38527,-0.031159,0.14183,-0.99914,0.96441,0.19143,0.94094,0.68651,0.12188,-0.2808,-0.18802,0.71041,0.15174,-0.45317,0.80704,-0.95747,-0.50325,0.66668,-0.058896,0.086527,-0.68211,-0.094429,-0.098115,0.64721,0.20565,-0.056547,0.66729,0.41754,0.68211,0.10672
0.80373,0.42077,-0.37676,-0.33114,-0.27013,0.99431,-0.095184,0.53434,0.45472,-0.33552,-0.021697,-0.12927,-0.12148,0.25022,0.56742,-0.62737,-0.14395,-0.039333,0.35495,0.090055,-0.88029,0.43596,0.12446,0.59025,-0.29053,0.14051,0.49403,0.36458,-0.81236,-0.32143
0.73975,-0.59934,-0.46479,0.28156,0.89526,0.92365,0.59079,0.84865,0.19395,-0.57434,0.65751,-0.10453,-0.98217,0.10728,-0.22665,-0.52771,-0.7854,-0.63728,-0.44752,-0.84679,-0.94492,0.56176,0.20583,-0.47848,-0.69363,-0.89621,-0.92466,-0.98176,-0.77647,-0.36099
-0.031522,0.11313,0.048003,-0.77902,-0.33728,-0.97078,-0.56206,0.88042,-0.28761,0.030786,0.32427,0.61207,0.68674,0.25265,-0.36978,0.31381,0.4618,0.73369,-0.61941,0.52859,0.018999,-0.068839,-0.49796,-0.37951,-0.23813,-0.97581,-0.85027,0.48731,-0.43479,0.26794
-0.49255,-0.073667,0.82611,-0.30114,-0.30149,0.36476,0.60442,0.84128,0.097165,-0.52733,0.63962,-0.99495,-0.74627,-0.92038,0.43023,-0.87865,-0.90066,-0.14801,0.67339,-0.73928,0.5716,0.17613,0.33234,-0.026673,0.13364,-0.77898,0.66588,0.1068,-0.57841,0.68477
-0.061779,0.87081,-0.30217,-0.96985,-0.57867,0.72754,-0.64571,-0.50791,0.57247,-0.91413,-0.38128,0.30145,-0.52825,0.71226,0.12381,0.84368,-0.17975,-0.87187,0.017558,-0.94267,0.98973,0.72053,0.93835,0.97089,0.38503,-0.55162,0.39624,-0.7025,-0.54516,-0.39487
0.46223,-0.52216,-0.56695,0.60082,-0.14548,0.12134,-0.92321,-0.62867,-0.28519,0.48566,-0.79832,-0.3484,-0.32892,0.53443,-0.66285,0.12966,0.80533,0.30471,0.077607,0.62967,0.79441,0.69545,-0.12659,0.33412,0.57698,0.38853,-0.97018,0.32481,0.58346,0.78844
-0.87713,-0.27684,0.23981,0.069336,0.22868,-0.94859,-0.44895,0.58079,0.54748,-0.11675,-0.25968,-0.43102,-0.71362,-0.0099798,0.52564,-0.50059,0.53336,-0.58111,-0.40873,-0.69389,-0.6713,0.018016,0.6434,0.90568,0.25959,0.92321,-0.44434,0.47244,-0.821,0.8453
0.80283,0.85357,-0.50627,0.93111,0.56067,0.46012,0.87051,0.46239,0.47058,-0.24319,0.64133,0.56463,0.79012,0.13096,-0.79283,0.13646,0.17497,0.99447,-0.14028,-0.79757,-0.66973,-0.81706,0.33308,-0.21069,-0.02272,0.81852,0.50198,-0.82807,-0.41006,0.46271
-0.088897,0.028333,0.87721,0.60507,0.32246,0.48437,-0.66845,0.78617,0.90081,0.92379,-0.62498,-0.66118,-0.29911,-0.86962,-0.73569,-0.18688,0.1742,-0.41185,-0.3364,-0.71636,0.9328,0.57606,0.95483,-0.029085,0.51914,0.19396,-0.53626,-0.65242,-0.80867,-0.73631
0.16059,0.45305,-0.80663,0.28443,0.35621,-0.25299,-0.068306,-0.22119,0.82753,-0.65919,0.89036,0.26723,-0.98026,0.43128,-0.20448,-0.94242,-0.96041,0.24311,-0.045322,-0.36551,-0.030561,0.90165,0.062502,0.7131,0.96476,-0.031492,-0.87148,0.21918,0.57872,-0.84236
-0.26098,0.22514,-0.71362,-0.36147,-0.3213,0.47926,0.79476,-0.24393,-0.33261,0.81133,-0.50656,-0.41084,-0.058532,0.11851,-0.37717,-0.79043,0.68632,-0.58233,0.03567,0.64487,0.5926,-0.98615,0.79001,-0.49897,-0.11001,-0.25293,-0.55343,-0.40686,0.91108,0.86798
-0.17894,-0.99758,-0.76371,0.45303,-0.57954,0.86778,0.60256,-0.42532,-0.50463,0.21375,0.5878,0.8158,-0.46812,0.91441,-0.16814,0.71445,-0.15768,-0.36033,-0.60548,0.47801,-0.87293,-0.85539,0.48055,0.3519,-0.15451,-0.28716,-0.58266,-0.57156,-0.9584,0.22285
-0.88113,0.8321,0.4817,0.71722,-0.24324,0.27228,-0.83339,-0.21415,0.88607,-0.29937,-0.92342,0.95676,-0.1187,-0.9256,0.1216,-0.066482,0.87465,0.36795,-0.22164,-0.22563,0.35817,0.092201,-0.45448,-0.91128,0.12145,-0.48134,0.40802,-0.17245,-0.80146,-0.12221
-0.82412,0.024659,0.40269,-0.87426,0.5371,-0.037708,-0.53941,-0.50924,0.16444,0.20354,0.92283,-0.21645,0.26146,-0.26174,-0.24732,0.94998,0.80805,-0.77817,-0.34326,-0.19709,-0.47141,0.29619,-0.36988,-0.19089,0.57192,0.16298,0.87432,-0.9381,0.24293,-0.64129
-0.051805,0.61638,0.71516,-0.58241,0.295,0.13524,-0.5652,-0.13165,0.29214,0.10092,0.59735,-0.20381,-0.19174,-0.89677,0.023002,0.91542,-0.20784,0.18065,0.42727,-0.14642,-0.27446,-0.011554,0.5303,0.034205,0.94534,-0.67094,-0.57468,0.56867,-0.69262,0.070425
0.21887,0.74183,0.73894,-0.50474,0.60302,0.57956,0.60887,-0.37569,0.53065,0.14066,0.55718,0.54332,0.79296,-0.23019,-0.49306,0.34174,0.45151,0.41131,0.8069,-0.47799,-0.89177,0.81935,0.85107,0.69967,0.30886,0.40694,0.21681,0.37103,0.15181,-0.69107
0.81891,0.69126,-0.14819,0.963,-0.73098,0.018825,0.048238,0.52046,-0.65621,-0.60939,-0.66514,0.2999,-0.62255,0.98352,-0.61578,-0.13586,-0.18362,-0.0020489,-0.45774,-0.90926,-0.77926,-0.23123,-0.33798,0.62902,-0.12724,-0.76993,0.90148,0.11745,-0.76228,0.37188
0.35592,0.88591,0.51587,-0.27971,-0.93615,0.083,-0.89636,-0.82784,-0.34983,-0.58433,0.15586,-0.28548,0.28964,0.28205,0.3425,0.65526,-0.8227,0.49825,0.97369,0.99139,0.73577,0.98064,0.1861,-0.41346,-0.61833,-0.57078,-0.3579,-0.24625,-0.96574,-0.27255
0.50365,-0.19326,0.52716,-0.95442,-0.69078,0.18559,-0.40764,0.26204,-0.22374,0.93903,-0.19852,0.11774,-0.8384,0.025743,-0.58364,0.19634,0.8805,0.31546,0.11975,-0.88142,0.53276,-0.58015,0.83059,-0.86665,-0.41665,-0.049223,0.59699,-0.18381,0.70618,0.42943
0.35272,-0.91143,-0.06739,0.90564,0.90638,0.090947,-0.2732,0.27308,-0.21653,-0.56271,0.25472,0.37781,0.47388,0.396,-0.48104,0.4357,-0.54108,0.44968,-0.30132,-0.14356,0.88561,-0.73525,-0.86483,-0.11262,0.60129,-0.86671,-0.22484,-0.86789,0.66117,0.90135
-0.15085,0.235,-0.05902,0.65565,-0.17518,-0.1836,0.32052,0.27324,0.18385,-0.60364,-0.56026,-0.88128,-0.99615,-0.40768,-0.58811,0.038087,0.46331,0.81568,0.012184,0.20457,0.25288,-0.98653,0.28404,-0.13368,0.25473,-0.84625,-0.4941,-0.91516,0.57723,0.99032
-0.90332,-0.96406,-0.3845,-0.80022,0.07735,-0.11567,-0.48243,0.064281,0.091826,-0.88619,-0.19569,-0.5067,-0.82221,-0.31375,0.33678,-0.12995,0.070838,0.82032,-0.96715,-0.87926,0.41354,0.68423,-0.93436,0.86754,0.085685,0.15047,0.46406,-0.67754,0.1084,0.44258
0.77258,-0.78904,0.57907,-0.84213,0.20674,-0.91835,0.68425,-0.80418,0.40617,-0.40261,0.48499,-0.5731,-0.45784,0.7632,-0.15053,-0.61557,0.41627,-0.037582,-0.6879,-0.14932,-0.025963,0.7591,-0.99287,-0.47573,0.66108,0.10619,0.66927,-0.50489,-0.78493,-0.66742
-0.72129,0.58001,0.8272,-0.22516,-0.94216,0.2822,-0.51609,0.83233,-0.44373,-0.79105,0.72131,-0.41553,0.41729,0.35106,0.27906,0.8902,-0.4138,-0.31062,-0.77479,-0.24615,-0.14627,-0.48392,-0.049167,0.78867,-0.29762,-0.44682,-0.78283,-0.59589,0.3631,-0.96766
-0.48896,0.43196,0.86741,-0.11866,0.57305,-0.20064,0.24382,-0.065684,0.85672,0.19801,0.10828,-0.50765,-0.94819,0.9791,0.22557,-0.67614,-0.51267,-0.56329,0.56838,0.36757,-0.36727,0.64194,0.082783,-0.72292,-0.77147,0.70165,-0.92959,-0.47182,-0.90878,-0.23996
-0.64321,0.79022,0.022546,-0.55771,0.8649,0.21372,-0.22727,0.95567,0.66701,-0.35281,-0.36182,-0.97889,0.76,0.47163,0.62533,-0.50028,0.98791,0.60442,-0.59351,-0.19279,-0.53997,0.63984,-0.89674,0.15485,0.24043,-0.33957,-0.10938,-0.029688,-0.062605,0.82108
-0.37506,-0.26272,0.61025,0.53211,-0.29011,-0.69025,0.61123,0.97181,0.17943,0.33815,0.8016,-0.16827,-0.43921,-0.54423,-0.069015,0.47255,-0.96259,0.020678,-0.64623,-0.12341,0.2333,0.12384,0.16215,-0.46702,-0.26346,0.099382,0.40509,-0.59684,0.49393,-0.35422
-0.53583,0.51968,-0.43536,-0.62254,-0.86454,-0.4682,-0.39973,0.36286,-0.84938,-0.047218,0.3807,-0.27022,0.071758,0.53363,0.95593,-0.29414,-0.41151,0.17753,0.054779,-0.019463,-0.91741,-0.10293,-0.66787,-0.16464,-0.27973,-0.82174,-0.92699,-0.77302,0.17617,0.81034
-0.79112,-0.39827,0.22893,-0.49142,0.51237,0.37421,0.033131,0.93335,-0.57921,-0.075647,-0.59676,0.30768,-0.72776,0.29479,0.9638,-0.77171,0.4391,-0.98451,-0.9571,-0.80118,0.98766,-0.16932,-0.78157,0.3739,0.024741,0.21472,-0.79604,0.053236,0.029954,-0.69473
-0.89792,-0.37549,-0.85503,0.25834,0.013562,0.58175,-0.34417,-0.29383,0.49591,0.8131,-0.88784,0.088471,-0.35889,0.62464,-0.19992,0.10514,0.32182,-0.80162,-0.25353,-0.29713,-0.49386,-0.5752,-0.19434,0.55836,0.64958,0.69558,-0.037802,0.81422,0.18458,0.033168
-0.035804,-0.43931,-0.18909,0.23878,0.71008,0.7562,-0.57855,-0.19336,0.2579,0.9365,0.55256,0.54813,0.31343,-0.58535,0.76658,-0.07851,-0.31634,0.43547,0.85129,0.57662,0.62723,0.98276,0.91814,0.39565,0.49701,-0.93915,-0.52945,0.060202,0.35646,-0.33319
-0.92835,-0.28666,-0.6884,0.58167,0.71312,0.70005,-0.61591,-0.15354,0.074384,-0.2705,-0.9425,-0.21614,-0.96979,-0.6872,-0.57627,-0.13741,0.79125,-0.6362,0.7032,0.78294,-0.3759,0.76621,-0.22386,0.51907,-0.56432,-0.95206,0.50069,0.0025435,0.94351,0.40753
0.23631,0.65335,0.4635,0.97291,-0.70695,-0.5429,-0.92722,0.38951,-0.77288,0.54539,-0.46677,0.82435,0.89528,0.71842,-0.95785,0.76134,0.58271,-0.55495,0.271,-0.40161,-0.22859,0.76399,0.015473,-0.93161,0.66997,0.1422,0.51214,-0.14371,0.58205,-0.046743
0.49046,-0.7001,0.25261,-0.21934,0.74269,0.38327,-0.56194,-0.75874,0.7437,-0.82389,-0.06412,0.68243,-0.64762,0.51477,0.8471,0.68772,0.63733,-0.64535,-0.96558,0.38612,-0.24462,0.58473,-0.67758,0.30913,0.60138,-0.70724,-0.30394,0.57571,-0.9498,0.94137
-0.1824,-0.81745,0.63052,0.98243,0.68853,0.93579,-0.9377,-0.21666,0.69065,0.81486,-0.25544,-0.035638,0.79474,0.59225,0.65332,-0.28994,0.89684,-0.80437,0.90213,0.23084,-0.01877,0.36323,-0.38855,-0.6025,-0.3019,0.34687,0.95669,0.81324,-0.9005,-0.95113
-0.81375,0.097888,0.8362,0.34982,-0.093238,-0.96752,0.21198,-0.53811,-0.45573,0.35248,-0.39951,-0.63322,-0.34962,0.44481,-0.4606,-0.53859,0.60744,0.52309,-0.6826,0.85276,0.40496,-0.33507,0.77308,-0.43717,-0.31434,-0.1104,-0.81493,0.4879,0.84627,0.11796
-0.63864,0.35157,0.59942,-0.70719,-0.33723,-0.98424,-0.43723,0.94608,0.56459,0.092301,-0.26802,-0.56804,-0.57959,-0.059814,0.26929,0.76788,0.2373,0.014463,-0.47834,-0.15022,-0.59798,-0.62089,0.52317,0.38784,-0.68178,0.72309,-0.40191,0.72112,-0.8944,0.28761
-0.83609,0.05577,-0.73283,-0.065099,-0.41451,-0.65621,0.41305,0.67282,-0.93995,-0.57218,0.80546,-0.30028,0.27344,0.76924,0.13682,-0.80535,-0.30501,0.95433,0.42827,0.69956,0.88271,-0.97343,0.15982,-0.85056,0.91268,0.65799,-0.056556,-0.27946,-0.21708,-0.16481
0.18039,-0.82135,-0.71268,-0.81387,0.60673,0.87052,0.28442,-0.14224,-0.15802,0.53676,-0.91866,0.083976,0.99762,0.21446,0.1972,-0.72993,0.42509,-0.56358,-0.4896,-0.076895,-0.26621,-0.96869,0.60236,-0.42449,-0.43632,0.30669,0.78926,-0.96334,0.087435,0.21431
0.5813,-0.23641,0.28612,-0.70427,0.95475,0.35336,0.88841,-0.80132,-0.25907,-0.64872,0.84323,-0.84025,-0.20449,-0.38675,-0.48891,-0.21462,-0.025139,0.97163,0.90031,0.14996,0.53155,-0.80434,0.99758,-0.69991,-0.41331,-0.37951,0.50616,0.30327,0.72333,-0.56058
0.27456,-0.30983,0.58932,-0.70929,0.76582,-0.5797,-0.67744,-0.82061,0.44057,-0.18927,-0.35238,0.46571,0.94406,0.13676,0.97162,-0.54967,-0.61915,-0.17131,-0.99924,-0.89868,0.47616,0.48178,-0.94826,-0.96943,-0.18907,-0.62484,-0.31211,0.98706,-0.74412,-0.33549
-0.23153,-0.78787,-0.301,0.3308,0.08228,0.15069,0.42525,0.80399,0.65814,0.1783,0.6961,0.58724,0.9885,0.43507,0.58829,-0.74113,0.1325,-0.24834,0.52239,0.11424,-0.26842,-0.014239,0.481,-0.95533,-0.67216,-0.43732,-0.96331,0.30441,-0.84897,0.45242
-0.96935,-0.2945,0.1699,-0.072307,-0.12553,0.33692,0.48718,-0.087052,0.11954,0.65488,0.099512,-0.075225,0.26041,0.87423,0.41168,-0.10838,-0.11399,0.78465,0.90917,0.23034,0.25022,-0.44099,0.43418,0.56747,0.18119,-0.8768,-0.15122,0.70354,-0.82024,0.38237
-0.52367,-0.86043,-0.70348,-0.013855,0.51034,0.94838,-0.86535,-0.45258,-0.25945,0.31396,0.20651,-0.14926,-0.82345,-0.96439,-0.95826,-0.28317,0.51291,-0.061186,0.13859,0.50259,-0.075259,-0.86044,-0.55256,0.72916,0.68215,0.29563,-0.72701,-0.93599,-0.23511,-0.10909
-0.22141,0.59035,0.81579,0.97384,0.52017,-0.45192,0.84922,0.84396,-0.10199,-0.31217,-0.93667,0.61641,0.3927,-0.42338,-0.19095,0.51191,0.084096,-0.65788,0.99743,0.19278,0.17449,-0.89759,-0.51798,-0.084734,0.16341,-0.21134,0.61504,0.040468,0.81451,0.35026
0.83355,-0.62507,-0.81485,0.34884,-0.73746,0.21906,0.34036,0.5709,-0.0385,-0.14602,-0.80859,0.38579,-0.74348,0.15214,-0.60993,0.12631,0.31146,0.20717,-0.22714,-0.7814,-0.95293,-0.29703,-0.57444,0.49457,-0.25778,0.44131,0.91725,0.5599,-0.37176,0.081751
0.80425,-0.63425,0.56125,0.084743,0.35427,-0.008518,-0.91862,0.92003,-0.53564,-0.11925,0.093963,-0.83678,-0.21208,0.86405,-0.45395,-0.21252,0.16087,-0.035087,0.9515,0.60997,0.44674,-0.9861,0.16656,0.45762,-0.71668,-0.44026,0.6197,0.13995,0.022737,0.58711
0.83078,0.24702,0.41882,0.79859,0.046096,-0.058756,-0.080864,-0.47589,-0.66393,-0.71191,0.89461,0.23871,-0.45215,-0.29891,0.6212,0.61613,-0.05652,-0.63335,0.35733,0.48293,0.44906,0.55553,0.42507,-0.0033878,0.014672,0.74142,0.43742,0.7723,0.62691,0.58772
0.11608,-0.71894,-0.14047,-0.50739,0.018514,0.6306,0.66688,0.75435,-0.50309,-0.093718,-0.35443,-0.13855,0.20617,0.10871,0.27105,-0.97636,0.6761,0.1536,0.38863,0.3882,-0.70504,0.58395,0.14484,0.62531,-0.62155,-0.48811,-0.91982,-0.12341,0.95149,-0.30098
0.54235,-0.54794,0.87199,-0.31608,0.23145,0.077233,0.57631,-0.24782,0.80703,0.39331,-0.60031,-0.45001,-0.42992,0.59305,-0.30555,0.89583,0.33743,0.75981,0.89071,0.088404,0.08755,0.28925,-0.79674,0.66282,-0.12814,-0.90476,-0.36475,0.9079,-0.008131,0.95958
0.57784,0.90363,0.99428,-0.23931,-0.1236,-0.43926,-0.59972,-0.47757,0.1354,-0.13032,-0.27455,0.78673,0.40271,0.55605,0.38262,0.81635,0.83052,-0.29334,-0.69116,-0.3389,-0.29135,-0.64282,-0.63257,0.52047,0.93459,-0.62584,0.062072,-0.57782,-0.35245,0.1777
-0.65587,-0.19406,-0.69106,-0.47585,-0.65181,-0.77314,-0.083371,-0.71404,-0.59455,-0.68665,-0.010228,0.035646,-0.55416,0.67401,-0.585,-0.38078,-0.52603,0.30364,-0.91645,0.58409,0.58922,-0.56384,0.94652,0.46318,0.30258,0.99255,-0.14793,-0.64139,-0.94949,0.18112
-0.32761,0.43047,-0.30416,-0.0081935,-0.4909,0.61738,0.24054,0.32509,0.64741,0.81457,-0.82403,-0.079191,-0.15861,0.82239,0.32251,0.33326,-0.22729,-0.47023,0.90023,-0.48125,0.76296,-0.34179,0.47351,0.34377,0.22816,-0.50319,0.13619,0.94614,-0.84144,-0.85187
-0.24872,0.86986,-0.30258,-0.41907,0.35102,-0.54074,0.53267,-0.96067,0.8862,0.013801,0.49077,0.78199,-0.69163,-0.11728,-0.94226,-0.97309,0.46265,0.84211,0.84663,-0.8337,0.72952,-0.44813,-0.46195,0.14662,0.50245,-0.8672,0.91452,-0.8712,-0.21178,-0.32697
-0.64073,0.77688,-0.286,0.52672,-0.46008,0.80952,0.91078,-0.59897,-0.37989,-0.96898,-0.56845,-0.35475,0.42195,0.44406,-0.72798,0.75218,-0.2651,0.43299,-0.50784,0.27468,-0.85444,0.77738,-0.019881,0.90979,0.67893,-0.73215,0.54435,0.15668,-0.60706,0.023236
-0.95767,-0.034796,0.4091,-0.64681,0.77268,0.34615,0.57664,0.78757,0.55157,0.28105,-0.68937,0.94969,0.17733,0.98644,0.77574,0.080991,-0.90795,0.0014817,0.35791,0.48952,0.34132,0.25146,-0.37492,0.01832,0.48311,0.33533,-0.37359,0.31694,0.12328,-0.18692
0.77003,0.7735,-0.016851,-0.75426,-0.38065,0.97564,0.18438,-0.3641,0.74133,0.79291,0.28229,0.68119,0.82319,-0.16572,0.54373,-0.25055,0.82613,0.17011,0.23857,-0.72823,-0.013364,-0.32153,0.23699,-0.79921,0.061796,-0.66058,0.73479,-0.75279,-0.54294,0.3538
0.76125,-0.81798,0.048546,0.57253,0.97649,0.28214,-0.44134,-0.072881,0.41494,0.72434,-0.82362,-0.90037,0.037479,-0.11534,-0.56892,0.15047,-0.51867,0.86451,0.77076,0.47646,0.0082463,0.32652,-0.16575,-0.75494,-0.4635,0.074386,0.98139,-0.61581,-0.68685,0.49861
0.43897,0.34847,-0.62082,-0.61125,0.077673,0.85992,-0.13279,-0.36416,0.88777,-0.79758,-0.53403,-0.56721,0.67598,-0.59207,0.083032,-0.34845,0.27375,0.61906,0.94096,0.90437,-0.062226,-0.67074,-0.91652,-0.005493,0.84905,-0.1151,0.50467,0.93306,-0.51376,-0.66002
-0.85451,-0.5112,-0.25772,0.030483,0.43148,-0.88299,0.77623,0.55265,-0.1255,0.95179,0.98526,0.78739,0.036152,-0.51031,-0.29939,-0.78374,0.47489,-0.95682,0.77419,0.18209,0.010685,0.83222,-0.48672,-0.21114,0.859,0.15198,0.13385,0.48248,-0.4702,0.4066
0.44413,0.65791,-0.79595,0.67254,-0.58159,0.84049,-0.68738,-0.001508,-0.38637,0.15474,-0.55718,0.68689,-0.15297,-0.58058,-0.57015,0.22974,0.82213,0.18559,0.40617,-0.69114,0.40611,0.75389,-0.42793,0.1447,0.50539,0.43029,0.96091,0.0025958,0.82887,0.81703
-0.48784,-0.078374,-0.039866,-0.25614,-0.11402,0.63162,-0.15992,-0.28357,0.31837,-0.85456,-0.025702,0.90865,-0.75588,-0.7582,0.61835,-0.9921,-0.30994,0.86792,-0.6205,-0.25299,-0.49189,-0.20351,0.041202,-0.70075,0.0747,-0.47043,0.87071,0.19246,0.010758,-0.043836
0.040095,0.23934,-0.89907,-0.25614,0.39102,0.22007,0.72599,0.18748,0.051385,0.91382,-0.77748,0.33929,0.23082,0.561,0.23448,0.8047,0.7341,0.095353,-0.77189,0.40499,0.10569,0.71807,0.1658,0.17768,-0.69325,0.89136,-0.24452,-0.61868,0.15089,-0.9846
-0.64376,0.71336,0.89619,-0.10648,0.41121,-0.085791,-0.65956,0.72984,0.055432,0.79107,0.12222,0.45983,0.72831,0.97083,-0.11577,0.1447,-0.2017,0.21767,0.42407,0.88613,0.3318,-0.099506,0.61485,-0.0527,0.63871,-0.12282,0.71164,0.39239,-0.69872,-0.63624
0.98516,-0.22377,0.51912,0.88186,-0.42044,0.14916,0.19627,-0.87286,0.9055,-0.39481,-0.1983,0.7612,-0.44644,-0.020645,-0.15489,0.30721,0.53697,0.2014,0.19003,0.60169,-0.89059,-0.80123,0.99954,0.082597,-0.85636,-0.13063,0.63669,-0.17715,0.35679,0.36401
0.85425,-0.90534,-0.51406,0.99457,0.427,-0.67959,-0.35493,0.18728,0.059303,0.11088,-0.55939,-0.65929,-0.90745,0.40938,0.76433,-0.17033,-0.58557,-0.93998,0.31993,0.50126,-0.64562,0.64276,-0.08383,0.5654,-0.92189,0.70995,0.25886,-0.85308,0.11395,-0.17648
0.19189,-0.16941,-0.17692,-0.93715,-0.067704,-0.11812,0.55265,0.7023,0.66442,0.59796,-0.97224,-0.42651,-0.33189,-0.55445,0.92759,-0.82289,-0.35705,-0.86198,-0.47412,0.39678,-0.11039,-0.25826,-0.94028,-0.56134,-0.92907,0.44789,-0.81075,0.4527,-0.34828,0.76236
0.51301,-0.59663,0.67914,0.52214,0.15849,0.55911,0.38042,-0.79587,-0.10565,0.18095,-0.79535,0.94415,-0.63828,-0.40868,0.43655,-0.9152,0.80305,-0.53335,0.76924,0.85577,0.62841,-0.17316,-0.65484,-0.44802,0.21299,0.48863,-0.42134,0.38247,-0.0081906,0.22468
0.089878,-0.098672,0.28228,-0.20497,-0.44095,-0.3474,-0.50649,0.748,-0.58342,-0.55508,0.15853,0.2396,0.4415,-0.024284,-0.40475,0.80319,-0.53723,0.93557,-0.73274,0.10546,-0.9002,-0.045385,0.89061,-0.50823,0.98562,0.28152,-0.902,0.99744,-0.68132,0.65836
0.68772,-0.45869,-0.69881,0.64936,-0.42993,-0.9246,-0.9771,-0.62721,-0.11342,-0.89045,0.98159,-0.44808,0.91622,-0.58842,-0.61074,-0.57956,0.35015,-0.22369,0.82715,0.38697,-0.05007,0.62967,-0.77867,0.039086,-0.66289,-0.72332,-0.024602,0.079631,-0.76574,0.65437
-0.52591,-0.22431,-0.16305,0.15019,0.48672,0.79485,0.63228,-0.63773,-0.39854,-0.11879,0.81642,0.62656,-0.82519,0.68586,0.55786,0.050201,-0.49743,-0.07908,-0.96952,0.50061,-0.74474,0.83033,-0.81716,0.3065,0.62043,0.72255,-0.65625,0.17002,-0.5307,0.49968
-0.82033,-0.4758,0.5877,0.65931,-0.66165,-0.55313,-0.86464,-0.39422,-0.52159,-0.80541,0.36269,0.59164,0.021901,-0.48324,0.76332,-0.96407,0.46305,0.55655,-0.63279,0.47736,-0.91082,0.71191,0.52318,-0.067437,-0.011531,-0.78958,-0.49172,0.62115,0.021377,-0.85292
-0.81665,0.92694,0.64993,-0.65774,-0.7548,0.8209,0.14671,-0.69514,-0.85082,-0.80284,0.6295,0.24206,-0.35712,0.33073,-0.0075001,-0.96684,-0.68179,-0.89047,0.43087,0.70121,-0.44562,-0.067007,-0.63575,0.23409,0.41306,-0.048426,-0.27304,0.28476,-0.42665,0.1165
-0.58862,0.36358,0.33112,-0.37305,0.50132,-0.60542,-0.82532,-0.19718,-0.028225,-0.10616,0.23507,0.69993,-0.32303,0.67976,-0.93512,0.33331,-0.3672,0.20334,0.53124,0.35075,0.7435,0.69074,0.65338,-0.48114,0.62325,0.34993,0.090484,0.55536,0.21651,0.7871
-0.86917,0.67306,0.2982,0.34297,0.73095,-0.38418,0.97865,-0.6309,-0.17018,-0.35994,0.4901,-0.41283,0.30397,-0.16417,0.65489,-0.53421,-0.048091,-0.78396,0.40606,-0.039722,0.16328,-0.79468,0.93889,-0.21153,-0.97142,-0.82995,0.092356,0.6778,-0.18335,-0.96666
-0.25634,-0.029115,-0.91656,0.0031806,-0.22143,-0.31428,-0.36982,-0.56423,-0.54496,0.82593,0.75769,-0.39336,0.22084,-0.59952,0.0055486,0.35623,-0.26749,-0.78942,-0.67284,0.91987,0.4949,-0.25246,-0.62149,0.88488,0.91051,-0.52501,0.37743,-0.94789,0.8948,-0.67635
-0.20605,0.62391,-0.40624,-0.49889,-0.15435,0.0291,-0.6871,-0.99749,-0.7662,-0.72475,0.27816,-0.70071,0.28131,0.65998,-0.64392,0.88473,0.57531,-0.79479,-0.10261,-0.11318,0.85337,-0.76676,0.621,-0.81538,0.029388,0.86526,0.076416,-0.31908,0.71944,-0.025794
0.26602,-0.56727,-0.90485,-0.25823,0.36201,0.26622,-0.84921,0.64152,0.80419,-0.26768,-0.87026,0.33155,0.4538,-0.58292,-0.57488,0.99977,-0.37991,-0.038341,0.39831,0.72271,0.3626,0.59764,-0.15601,0.15981,0.74369,-0.37862,-0.96363,-0.72957,0.95293,-0.54153
-0.78549,-0.75551,-0.79557,-0.10172,-0.79563,-0.22011,0.92936,0.96471,-0.7123,-0.77945,0.6531,-0.55318,-0.11177,-0.33623,0.88969,-0.16703,0.78049,0.58291,0.65121,-0.18854,-0.89886,0.25501,-0.11158,-0.27071,0.94069,0.20317,-0.009386,0.56448,0.83093,0.94342
-0.18274,-0.20985,0.38943,-0.54106,0.1401,-0.88862,-0.62721,-0.105,-0.53767,-0.95305,0.38705,-0.044229,0.13383,-0.232,-0.84049,0.73856,0.78497,0.36139,-0.27583,-0.25356,0.66743,0.94631,-0.46751,0.025992,-0.79469,-0.1102,0.072373,-0.045048,-0.013243,0.51914
-0.43798,-0.48192,0.61069,0.7856,-0.39311,-0.58425,-0.44838,-0.55778,-0.83706,-0.32176,-0.66882,0.7547,0.61108,-0.70461,0.20637,0.1452,-0.37868,0.93509,-0.90925,-0.83413,0.69152,0.70943,0.087747,0.4885,0.15917,-0.21246,-0.61758,-0.73608,-0.16475,-0.035256
-0.36539,-0.84692,-0.55728,0.25144,0.32724,0.70457,-0.98035,0.46006,0.22817,0.93586,0.74255,-0.45524,-0.79268,0.92381,0.070772,-0.17614,0.39623,0.32229,-0.12878,0.82854,0.92249,-0.68709,0.19639,-0.36744,-0.82306,-0.55916,-0.83387,-0.76754,-0.52313,0.99473
-0.91743,0.48206,0.30874,0.66218,-0.92834,-0.59509,0.77651,-0.92897,0.72283,-0.47729,0.93063,-0.24223,0.75318,0.27137,0.86813,-0.95222,-0.39378,-0.69146,0.036522,0.026513,-0.31952,0.10593,0.53383,-0.99224,-0.059341,-0.66869,0.8041,-0.59342,-0.85237,0.69588
-0.98531,-0.1487,0.88433,0.61714,-0.37965,-0.4155,0.27905,0.38119,0.47717,-0.71563,-0.35757,-0.72668,-0.91887,-0.37981,0.44263,-0.22196,0.19522,-0.024121,0.68905,0.87942,-0.89729,0.38944,0.3256,0.53047,0.80375,0.04981,-0.89257,0.3622,0.28173,0.14031
0.29022,0.35664,0.088383,-0.7676,-0.72098,-0.79609,-0.44406,-0.43351,-0.90331,0.63221,-0.13938,0.5042,0.93699,0.83999,-0.57505,0.43789,0.59991,0.4529,-0.27677,-0.21751,-0.73468,0.53139,0.21927,0.65787,-0.64603,0.89576,-0.63099,-0.025229,-0.54801,-0.35592
-0.90355,0.12853,0.57766,0.55739,-0.46585,0.49664,0.82233,0.49417,-0.44354,0.72916,0.28323,-0.41775,0.11065,-0.90212,0.99272,-0.64916,-0.46303,-0.4313,0.55333,-0.19087,-0.40924,0.91824,0.17665,-0.39725,0.66316,-0.26731,0.13315,-0.4755,0.17723,0.9074
-0.028193,0.74136,-0.025949,-0.099492,-0.26087,-0.90983,0.59844,0.48226,-0.59278,0.26636,0.13943,0.99186,0.68136,-0.40878,-0.77632,0.92696,-0.30541,-0.20883,-0.31093,0.19178,0.49758,-0.35613,-0.47251,-0.44422,0.46676,-0.51018,-0.91679,0.17361,0.057982,-0.22209
-0.64828,0.59163,-0.51698,-0.74004,-0.20846,-0.91334,-0.014742,-0.18852,-0.65689,-0.68109,-0.7008,-0.27206,0.54619,0.010866,-0.43801,0.65355,-0.74311,0.40308,-0.59062,0.079384,-0.95527,0.38669,0.25591,-0.17184,-0.16546,0.82334,-0.75255,-0.69065,0.53866,-0.69027
-0.36558,0.15118,-0.57252,0.98199,-0.69632,0.18662,0.40984,0.74567,0.28045,-0.88837,-0.16725,0.88766,0.25129,-0.7461,-0.061434,-0.081346,-0.18668,-0.50108,0.62556,0.43087,-0.87854,-0.7248,-0.37845,-0.81886,-0.72992,0.23508,0.70857,0.52046,-0.73092,-0.50433
0.48872,0.74373,0.10699,0.37442,0.62373,-0.94601,0.99928,0.29368,-0.66353,-0.22997,-0.22785,-0.61564,0.17564,0.51875,0.082803,-0.25299,-0.74563,0.29784,0.73863,0.95147,0.47756,-0.63012,-0.56514,-0.033894,0.741,0.92288,-0.80583,-0.97817,-0.80185,0.50773
0.83283,0.82468,0.33151,0.18721,-0.20649,0.57994,-0.76297,-0.13424,0.19263,0.2266,0.28907,-0.25933,0.93292,0.93814,-0.031398,0.87473,-0.16098,-0.66266,-0.68298,-0.7561,0.87705,0.94658,-0.93589,-0.48129,0.74529,0.63969,0.96091,-0.64,0.40192,0.55967
0.23533,-0.79154,0.26631,0.93285,-0.96935,0.049925,-0.070146,-0.0014653,0.057476,-0.99085,0.12416,-0.56464,0.85335,-0.90921,0.042393,0.79544,0.9134,-0.14834,-0.30155,-0.56267,0.65873,0.95204,-0.0058592,-0.5674,0.19333,-0.099998,0.67685,-0.48325,-0.28065,-0.28631
-0.91326,-0.88789,0.59266,0.90103,-0.43208,0.79749,0.67414,-0.98841,-0.051395,-0.99318,0.63771,-0.94132,-0.11143,0.66765,0.64658,-0.75904,0.33329,-0.55262,0.35815,0.1026,0.87747,0.23167,-0.71854,0.71117,0.86102,-0.48596,-0.32432,0.54757,-0.5669,0.22957
-0.31475,0.382,-0.76825,0.052934,-0.91884,-0.74788,-0.09968,0.64173,0.66343,-0.9925,-0.94865,-0.58994,-0.62847,-0.66933,0.99797,0.025903,-0.7276,0.87899,0.063991,-0.30833,-0.3924,0.75701,0.96013,0.97183,-0.60675,-0.33329,0.67018,0.040153,0.36718,0.42049
-0.67549,0.72433,0.28787,-0.35963,-0.4165,0.71202,-0.98166,0.3507,0.79824,-0.96831,0.38045,-0.4102,-0.1023,-0.68472,-0.43541,-0.23151,-0.26396,0.60973,0.82764,0.26199,0.48907,-0.025289,-0.020154,-0.1843,0.26529,-0.075927,0.24889,0.91084,0.52172,0.049943
-0.11961,0.71672,-0.57145,0.3128,-0.73741,0.56649,-0.21249,0.74788,0.68405,-0.29518,0.68613,0.59116,0.96273,0.9877,-0.87947,0.89672,-0.82994,0.14795,-0.20864,0.5908,-0.0068095,-0.6732,-0.44786,0.60113,0.040591,0.57626,0.26076,0.83601,0.12363,-0.11275
0.69861,0.52616,0.90986,0.94318,-0.58361,-0.91751,-0.116,0.22046,-0.65781,0.05556,-0.28975,-0.2965,-0.33374,0.12378,0.79456,-0.26783,0.42545,0.72344,-0.10554,-0.1788,-0.878,-0.11888,0.22104,-0.59015,0.85846,0.98,-0.81605,-0.105,-0.51446,-0.38535
0.038989,-0.76857,-0.015391,0.33308,-0.41863,-0.92934,0.76687,0.13328,0.87213,-0.70438,-0.85856,0.60597,-0.61261,-0.51689,-0.76602,-0.56209,-0.65836,0.71901,-0.7944,-0.25517,0.72777,-0.1404,-0.33727,-0.98932,-0.48904,0.48362,-0.29469,0.44214,-0.86003,-0.93597
0.71098,-0.16411,-0.84168,0.018996,-0.26935,0.45023,-0.92756,-0.050821,0.58996,0.59344,0.91411,0.87589,-0.84652,0.58793,-0.46549,0.49867,-0.77212,0.039245,0.68365,-0.032949,0.5201,-0.45621,0.23489,-0.56324,0.015473,0.13976,0.4272,-0.28543,-0.22194,0.049802
0.84664,0.40659,-0.79403,0.17438,-0.97853,-0.044064,-0.1033,0.75202,-0.095619,-0.52776,-0.023094,-0.88217,0.11335,0.11534,0.99143,0.14464,-0.89236,0.39296,0.88395,0.10621,0.89181,0.10962,0.5745,-0.68116,-0.92379,0.37715,-0.44397,-0.11084,-0.73026,0.27226
-0.82061,0.93155,0.36873,-0.56542,-0.37966,-0.32672,0.48949,0.13305,-0.84076,-0.7687,0.81035,-0.86425,0.93221,0.9541,-0.3532,0.5717,-0.17626,0.20442,0.22474,0.17019,-0.84667,-0.48645,-0.60492,-0.5555,-0.92102,0.22077,-0.18015,-0.99972,-0.25707,-0.62203
0.98358,0.48829,0.73968,0.7237,-0.65997,-0.32076,-0.58373,-0.086943,-0.41571,0.99068,-0.68217,0.32145,0.12284,0.72872,-0.23323,0.34391,0.68313,-0.22875,0.22776,0.60831,-0.6571,-0.9309,-0.76594,0.98666,0.35954,0.58608,-0.34601,0.064279,-0.15891,0.30859
0.33261,-0.75198,-0.70623,0.78252,-0.21984,0.96886,0.68411,0.36651,-0.04188,-0.6884,-0.9293,-0.63884,-0.060582,0.5679,0.1288,-0.83323,0.10954,0.067437,-0.63357,0.17477,-0.072396,0.86169,0.73054,-0.058753,-0.048872,-0.55808,-0.45597,-0.087792,0.87509,-0.89326
-0.34256,-0.97403,0.49049,0.7814,-0.80067,0.77248,-0.73106,-0.83458,0.74478,-0.44693,-0.50842,-0.0080237,-0.47283,0.62373,-0.78413,0.57516,-0.10266,-0.33329,-0.4929,-0.37386,-0.71805,0.74968,0.59089,0.19455,0.35633,-0.81636,0.65802,-0.23548,-0.20252,-0.68721
-0.33726,0.23094,-0.060309,0.84098,0.72217,0.96236,0.71045,0.85299,0.89785,0.069184,-0.076232,0.21026,0.45719,-0.080626,0.5846,0.051419,-0.45669,-0.97847,0.95882,0.84745,0.27286,-0.75761,0.82083,-0.76338,-0.43026,0.38201,0.33624,0.86095,-0.72158,-0.49507
0.60822,0.39257,0.095038,0.62262,0.97123,0.56062,-0.55583,-0.53006,0.95378,-0.62837,0.67074,-0.20148,-0.07012,-0.1429,0.87707,0.84267,-0.87278,0.71034,-0.64801,0.44428,-0.29177,-0.2039,0.93473,-0.6924,0.40659,-0.54452,-0.80021,-0.61155,-0.87073,0.18048
0.72597,-0.80013,0.035457,0.19245,-0.67963,-0.66786,-0.10489,0.035177,0.86322,-0.26319,-0.97751,0.47855,-0.55052,0.21255,0.71244,-0.14567,0.89269,0.9279,0.88737,-0.66988,0.66282,0.43227,0.30786,-0.95237,0.57235,-0.9738,0.17461,-0.22332,-0.65409,-0.026009
-0.47412,0.94759,-0.74865,0.15133,0.27394,0.30142,0.70455,-0.60364,-0.16454,0.88691,-0.78754,-0.39945,-0.61951,-0.72728,-0.6071,-0.31205,0.3396,0.40461,-0.50787,0.26839,0.81106,0.91122,0.06707,0.71788,-0.57969,0.18403,-0.41765,0.93069,-0.70643,0.16007
0.69873,-0.46586,-0.35969,-0.45112,0.85116,0.94041,-0.0092851,0.62046,0.72808,0.8566,0.74201,0.666,0.70292,0.57377,-0.69552,0.2014,-0.19313,0.42262,-0.47088,-0.65719,0.21163,-0.88972,0.020675,0.76386,-0.25107,-0.33408,0.9217,-0.17566,0.52877,-0.71329
0.77903,-0.18323,-0.064437,-0.51016,-0.94289,-0.36183,0.7726,0.85069,0.62048,-0.83147,-0.80283,0.64051,0.41399,-0.6125,-0.10317,0.49478,-0.18475,0.88035,0.072272,-0.52828,-0.91747,0.97626,0.82862,-0.30119,-0.99923,-0.80758,-0.40473,0.6015,-0.85107,0.1831
-0.64009,-0.99186,-0.072407,-0.1405,0.70472,0.42338,0.25154,-0.35558,0.076973,-0.69237,-0.22336,0.68372,0.21498,-0.97474,0.56947,-0.21042,-0.55727,0.53739,-0.43916,0.41232,0.83727,-0.64716,0.68811,0.21025,0.66444,0.064841,-0.16174,-0.62948,-0.25835,0.26335
-0.71714,-0.42209,0.75376,-0.57693,0.12611,0.41229,0.89754,0.38832,0.54878,-0.86358,-0.4982,0.97153,-0.31395,0.32388,0.8969,-0.43234,0.10496,0.46054,-0.7356,0.99911,-0.9982,0.84478,-0.054347,0.29398,0.73642,-0.50334,0.53102,-0.32297,-0.87049,0.8333
-0.58774,0.95231,0.30796,0.19149,0.33589,-0.30857,-0.74084,0.38395,-0.73035,-0.42649,-0.77505,0.3324,-0.8208,0.42053,-0.80613,0.36541,-0.61423,-0.39489,-0.5679,0.029413,-0.029666,-0.64362,-0.93035,-0.30962,-0.90959,-0.55545,-0.087787,0.4711,0.72405,0.29064
-0.62395,-0.50319,0.53348,-0.13996,-0.26754,0.1104,0.59813,-0.47267,-0.63304,0.56175,-0.67108,0.1071,-0.44607,0.10614,0.77473,0.31494,0.31089,-0.25558,-0.028177,0.58121,0.26035,-0.49384,0.90231,-0.17105,-0.27198,-0.83367,0.27597,-0.21155,0.94622,-0.78221
0.46083,0.44304,-0.96183,0.70019,-0.40296,0.16761,0.8072,0.4088,0.57218,-0.0012318,-0.078129,-0.48141,-0.050183,-0.98809,0.1561,-0.27605,-0.97728,-0.5742,-0.27808,-0.54525,0.10154,0.2055,-0.13531,0.22682,-0.5474,-0.22405,0.66392,0.29003,-0.15588,-0.51599
-0.84183,0.85807,-0.57959,0.46771,0.15591,0.26085,-0.51421,-0.73392,-0.53578,-0.56622,0.086206,0.47236,-0.28139,0.85498,0.64094,-0.93231,-0.5512,0.17052,-0.61173,-0.75503,0.58026,-0.86769,0.39883,-0.96309,0.69848,-0.8082,-0.42239,-0.29353,-0.76281,-0.68327
0.77913,-0.37716,-0.75046,-0.17618,0.32596,0.43572,-0.071156,0.99502,-0.33482,0.84728,-0.3522,0.35886,-0.43399,-0.11852,0.89926,0.039385,-0.37692,0.33013,0.079403,0.64022,-0.48404,0.018988,-0.46759,-0.15748,0.80488,0.72943,0.14901,-0.304,-0.84938,-0.44879
-0.74458,-0.59587,0.94162,-0.82139,-0.64002,-0.73544,0.93539,-0.82784,-0.034056,0.63278,0.37055,-0.52706,-0.21299,-0.4399,-0.30425,0.43557,-0.90166,0.67701,-0.24289,0.17735,0.53833,0.25108,-0.057898,-0.31153,0.69461,0.47429,0.39482,-0.1954,0.9785,-0.1975
-0.77578,-0.56867,0.64419,0.70461,-0.22303,-0.19845,0.86042,0.68827,0.12844,0.29285,-0.11101,-0.55423,-0.78355,-0.56007,-0.43036,-0.2846,-0.99164,0.19464,-0.98029,-0.48156,-0.10417,-0.054897,0.30833,0.94094,-0.80602,0.34795,-0.0021678,-0.24113,-0.34939,0.4143
-0.63431,0.48301,-0.87707,0.90849,0.38112,-0.19539,-0.72716,0.18942,0.08978,0.40268,0.22265,0.2499,0.47483,-0.50506,0.79416,0.39934,-0.84063,-0.43762,0.59113,0.37745,0.58727,0.44423,-0.58526,0.69367,0.2279,-0.74859,0.90748,0.90149,0.36149,0.53897
0.70626,-0.74708,-0.39695,0.34846,-0.95632,-0.67976,-0.10278,-0.55289,-0.17967,0.17209,-0.37514,-0.65597,0.57363,0.57172,0.79508,0.13711,-0.59583,0.13793,-0.010367,0.19895,-0.88197,0.18932,0.69296,0.15857,0.44387,-0.54465,0.84569,-0.84285,0.58361,-0.35535
-0.82169,0.70916,-0.60868,-0.20323,0.96833,0.64361,0.82991,0.50073,0.21023,0.25109,-0.83756,-0.76653,0.11249,0.077645,0.71828,-0.49927,0.25899,-0.88895,-0.76648,-0.46289,0.47439,0.52639,-0.53639,-0.43594,0.053327,0.97966,0.96966,-0.29292,-0.84495,0.41187
-0.88771,0.72616,-0.33817,0.16805,0.53005,-0.12645,0.92579,0.74248,0.59375,-0.21682,0.5458,0.28548,0.36487,0.76475,0.90077,-0.16726,0.53354,0.27271,-0.19727,-0.28237,0.8001,-0.42732,-0.26768,-0.15312,0.17849,0.5466,-0.10664,-0.49401,0.32523,-0.0041317
0.69327,-0.52462,-0.33948,-0.66131,-0.10526,0.87929,0.90489,0.35966,0.9779,0.45308,0.096621,0.059702,0.34548,0.5074,-0.24666,-0.10293,-0.63689,0.62186,-0.15924,-0.41963,0.77532,0.9728,-0.1343,-0.26708,-0.20449,0.98927,0.30427,-0.66935,-0.37741,-0.076199
0.67675,0.5143,-0.40737,-0.143,-0.31305,0.49289,0.9976,-0.68888,0.72257,-0.28918,-0.27016,-0.22003,-0.92943,-0.33441,-0.55954,0.45892,0.99193,-0.22858,-0.83674,0.70451,0.8793,-0.8163,0.51366,0.48894,0.37287,0.33689,-0.68792,-0.12386,-0.29051,-0.16459
-0.41835,-0.51142,-0.36616,0.78279,0.14052,-0.89932,0.96538,0.86019,-0.78406,-0.53934,-0.73258,-0.11339,0.42667,-0.20129,0.77735,-0.22394,-0.13534,0.93565,-0.027835,0.93942,-0.10505,0.59503,-0.049689,0.69141,-0.77047,-0.82785,0.76008,-0.8102,-0.59208,-0.65363
0.75571,-0.9916,-0.97004,-0.33923,0.94897,0.59321,-0.042766,0.78354,0.50574,-0.060885,-0.44283,0.75148,0.85038,-0.81795,-0.42868,-0.41374,-0.29845,0.015415,-0.98812,0.1569,0.5635,-0.58785,-0.9152,-0.94581,-0.51736,-0.44457,-0.8703,-0.89216,-0.76544,0.86455
0.55046,-0.96406,-0.9021,-0.036969,0.77905,-0.79201,-0.75544,0.04435,-0.59428,-0.42726,0.91593,0.26899,0.84003,-0.6337,-0.20045,-0.051712,0.86355,0.079056,-0.25166,-0.49937,0.27735,-0.0066448,-0.16455,0.28785,-0.11958,0.75683,-0.33976,-0.91533,0.96037,-0.24629
0.79144,0.66269,-0.27415,0.50567,-0.42429,-0.22559,-0.3519,0.4596,-0.33016,-0.2466,0.54373,-0.61247,-0.45141,0.25508,-0.60936,0.087114,-0.0095453,0.92711,0.67606,0.68856,0.64591,-0.97227,-0.83962,0.6064,0.75168,0.38681,0.94288,-0.090051,-0.86424,0.49883
-0.59869,0.53508,-0.94128,-0.72899,0.77603,-0.39602,-0.89849,-0.25988,0.36909,0.49559,-0.59267,-0.8276,0.33357,-0.25866,0.62563,0.3454,0.12807,-0.90821,0.96665,0.54329,-0.67048,0.39202,-0.9168,0.19098,-0.25305,0.21018,-0.45392,-0.40497,-0.84334,0.31198
-0.2298,-0.5207,0.069002,0.59373,-0.47653,-0.49643,0.99451,0.37321,-0.90914,0.018035,-0.0089417,-0.383,0.52524,0.44537,-0.4842,0.56197,-0.33718,0.76996,-0.3684,-0.54891,-0.24615,0.79682,-0.21751,-0.98497,0.54256,-0.69055,-0.53259,0.84301,-0.38536,0.06316
-0.38069,-0.51917,0.85484,0.7454,0.47654,-0.73252,-0.014968,0.012414,0.56435,-0.76912,-0.70753,0.81202,0.98565,-0.095164,0.30235,-0.31167,0.88735,-0.15644,-0.014703,0.72861,0.32972,-0.27823,-0.19358,0.093577,0.22968,-0.66117,-0.91408,-0.28356,-0.53645,-0.072959
-0.0096689,-0.41639,0.19624,0.85357,-0.6023,0.058337,0.24482,-0.92069,-0.025497,0.99158,-0.69269,-0.26827,-0.7084,-0.051447,-0.43096,-0.067201,0.82111,-0.9466,-0.45976,-0.92785,-0.73447,0.51186,0.5034,-0.62435,-0.70588,0.57026,0.87827,-0.48425,0.57372,0.82025
0.80039,-0.74868,0.12321,-0.10158,0.3382,-0.21213,-0.65379,-0.74946,-0.21503,-0.87244,0.11774,-0.3842,-0.1092,-0.19335,-0.34931,0.89766,0.076472,0.037454,-0.22227,-0.032618,0.6311,0.26765,0.62453,0.71815,-0.23325,0.052767,-0.091279,-0.75658,-0.65615,0.10869
0.016885,0.74145,0.60189,0.80859,-0.074658,-0.35573,0.1259,-0.42601,-0.9613,0.83838,-0.98528,0.2647,0.86268,-0.89612,0.89014,0.57503,-0.43531,-0.40952,-0.99472,-0.15403,0.40689,-0.20349,-0.78852,0.60268,-0.57829,0.12172,-0.68661,0.47184,-0.66266,-0.9963
0.13665,0.85282,-0.65157,0.012155,0.1181,0.31765,-0.20117,-0.8608,-0.00071156,0.67721,-0.76367,-0.23481,-0.82703,-0.11948,-0.87814,0.10741,-0.2225,0.94955,0.41961,0.5793,-0.098324,-0.088401,-0.50136,-0.9426,0.75619,-0.31184,-0.43279,-0.2368,-0.99204,0.74984
0.26932,-0.89673,0.40359,-0.8512,-0.9232,-0.58491,-0.84608,-0.63853,-0.90481,0.74064,0.39681,0.17106,-0.33052,0.88635,0.39601,-0.86335,0.27817,-0.23937,-0.58284,-0.99025,0.0054043,0.21564,0.40276,-0.35882,-0.65513,-0.32901,0.11498,0.29611,-0.53579,0.12725
-0.35825,-0.77841,0.51471,-0.13447,-0.4872,-0.33942,0.55179,0.44951,0.61621,0.4406,0.82393,0.066605,-0.56417,-0.24309,0.1483,0.23429,-0.97282,-0.52666,-0.17273,0.24224,-0.9947,-0.44345,-0.21716,0.50638,0.56053,-0.3222,0.89238,-0.3886,-0.26471,-0.53898
0.31784,-0.59608,0.94047,0.57534,-0.40163,0.7475,0.7829,0.80819,0.67123,-0.75247,-0.11737,0.073025,-0.082527,0.69018,-0.1439,0.52649,0.26861,-0.91455,-0.043981,0.13171,0.82568,-0.053946,0.92215,0.15179,-0.271,-0.38285,0.53517,-0.672,0.50086,-0.31005
-0.31706,0.048179,-0.68842,0.025238,0.21349,0.52955,0.014483,0.18587,0.26662,0.76744,0.61229,-0.54173,-0.4407,0.77673,-0.51261,0.74678,0.46921,0.73041,0.91874,0.51761,-0.12883,0.14241,0.74889,-0.73546,-0.21712,0.35772,-0.48966,0.49197,0.98697,0.83345
0.28271,0.37487,-0.3742,-0.79051,0.45425,-0.91154,-0.35028,-0.50934,0.56036,0.87965,0.056168,-0.38289,0.50678,-0.95198,0.29656,-0.20986,-0.3201,0.86155,0.38904,0.19553,-0.70863,-0.9832,0.40709,0.46151,-0.7431,0.69969,0.3766,0.4515,0.45978,-0.82674
0.41715,0.21943,-0.062487,-0.27126,0.12792,-0.45796,-0.65457,0.33926,0.61201,0.29309,0.11444,-0.31812,0.50755,-0.67591,0.29029,-0.65757,-0.20713,0.84056,-0.927,-0.32789,0.98401,0.58471,0.0023135,0.84491,-0.32218,0.88131,0.05368,0.14292,0.050641,0.54278
-0.7839,-0.99387,-0.97996,-0.90271,-0.95096,0.84688,-0.95856,0.80875,0.37187,-0.0046877,0.73996,0.37902,0.75258,-0.75882,-0.40392,0.73966,-0.84826,0.27233,-0.46623,-0.59366,0.75171,-0.98425,0.31875,0.31413,0.19699,-0.56803,0.34649,0.69562,0.39865,-0.83503
0.92257,0.51469,-0.86337,-0.97012,0.19373,-0.87182,-0.80021,-0.58907,0.37638,0.194,0.73131,-0.65527,-0.55472,0.105,-0.12627,-0.7661,0.72185,0.45008,0.74759,-0.60223,-0.13683,0.88033,-0.30821,0.37835,-0.051639,0.53149,-0.60112,0.42848,-0.40058,0.72279
0.69085,0.14917,0.23128,0.73786,0.76377,-0.5558,0.57804,-0.13474,-0.38274,-0.39495,-0.5807,-0.16006,0.22591,-0.7769,-0.32002,0.27816,0.82947,-0.17112,0.45023,0.015266,0.92129,-0.49982,0.32775,0.30703,0.094674,-0.14986,-0.97921,0.097267,-0.42684,-0.17053
0.43896,-0.7931,-0.12946,-0.89668,-0.71088,0.97813,0.664,0.59676,0.7996,0.012661,-0.79578,-0.75738,-0.95607,0.99688,0.21437,0.37269,0.36941,0.74253,0.41651,-0.68946,-0.50867,0.41122,-0.071086,0.57623,0.78555,-0.88245,-0.92142,-0.99167,0.49692,0.58507
0.98124,-0.82279,-0.43082,-0.22229,0.45767,-0.64427,0.096995,-0.62983,0.1613,-0.93364,0.055081,-0.50742,-0.19005,0.70036,-0.13133,0.21731,0.5764,0.52548,-0.83673,-0.77485,-0.43901,-0.93062,-0.47653,-0.34153,-0.029753,-0.22757,-0.33659,0.84961,0.077411,-0.044811
-0.27471,0.6107,0.90718,-0.51137,0.63343,-0.73379,-0.010551,-0.20058,0.23357,0.21786,0.93483,0.27968,-0.40222,-0.89741,-0.97539,-0.64226,0.85913,0.14335,-0.16211,0.83547,0.36126,-0.12554,0.4271,0.17972,-0.73315,0.31872,0.38731,-0.03758,0.39304,-0.77668
-0.4794,0.62855,-0.81747,-0.52271,0.66544,0.5615,0.9062,-0.53729,0.061119,-0.90009,-0.5172,-0.17197,0.77449,0.84132,0.27179,-0.78043,0.18612,0.34555,-0.13437,-0.75997,-0.37102,-0.36729,-0.075567,0.15803,-0.2336,-0.94712,0.08118,0.45003,0.32887,0.31753
-0.10771,-0.91817,-0.24457,-0.030085,0.5021,-0.97999,-0.56261,0.70789,-0.74612,0.12663,0.86137,-0.29739,-0.56079,0.93379,-0.90278,-0.29905,0.38407,-0.80061,0.52605,0.01476,0.39116,-0.68086,-0.14217,0.77189,0.6689,0.098525,-0.99936,-0.82731,0.51749,-0.46522
-0.30685,-0.87003,-0.4088,0.27808,-0.53848,0.12099,0.96902,-0.98049,-0.11709,-0.0015917,0.48856,0.65889,-0.70254,0.92339,-0.65903,0.88424,0.65213,0.57457,0.573,-0.24782,-0.65129,-0.54621,-0.35721,0.40838,0.84276,-0.83533,-0.65599,0.72883,0.20024,0.78259
-0.55961,-0.16937,-0.92012,-0.87304,-0.37476,-0.15535,0.72241,-0.79276,0.75255,-0.77936,-0.41062,-0.31609,-0.38227,0.56503,-0.73184,0.72963,-0.37405,0.74113,0.31743,0.65253,-0.63614,-0.40804,-0.28929,0.12303,0.51097,-0.19316,0.41266,0.29249,0.89382,-0.57998
0.78382,-0.35787,-0.30201,-0.98274,0.37853,0.7389,0.30503,-0.19126,-0.44075,0.50847,0.46924,0.27417,0.17799,-0.29343,-0.54458,-0.5413,-0.49939,-0.22626,-0.59754,-0.56097,0.54828,-0.98198,0.71961,0.91696,-0.13465,-0.92956,-0.63201,-0.017615,-0.070486,-0.086285
0.29134,0.20753,0.90632,0.8997,0.84785,0.41957,-0.65777,-0.13052,0.75214,0.43795,-0.070752,-0.42512,0.049039,-0.46095,-0.088608,-0.30709,-0.096101,0.029251,-0.93348,0.33327,0.94742,0.56538,-0.45808,0.78647,-0.9021,0.30528,-0.0596,0.1806,0.62918,0.22747
0.79624,-0.50383,-0.90981,0.08975,-0.88833,-0.66425,0.129,-0.91429,-0.28851,-0.34146,0.51437,0.47262,0.48072,0.3636,0.98181,-0.21426,-0.28755,-0.7562,-0.93711,-0.58225,0.6985,0.67517,0.19543,0.31655,0.68701,-0.414,0.74616,-0.52068,-0.41374,0.13431
-0.17336,-0.082207,-0.61751,-0.36877,-0.79317,-0.86806,0.62289,-0.53351,0.52764,0.80939,0.98853,0.19049,0.030704,0.9229,0.11733,0.44559,0.57607,0.72818,0.32387,0.54598,0.58028,-0.53097,-0.22753,0.55757,-0.71976,0.51388,-0.38888,-0.87078,-0.68067,-0.014439
-0.88918,-0.23225,0.086655,-0.47582,-0.54957,0.38069,0.78592,0.50453,-0.26285,-0.012975,-0.22958,0.13365,-0.67748,-0.93504,-0.80906,-0.65924,-0.89376,0.73365,-0.054525,-0.63336,0.26763,0.33093,-0.10151,0.69317,-0.11107,0.95575,-0.6912,-0.022345,0.3086,-0.73442
-0.92006,0.10898,0.26949,-0.2031,0.21864,0.73958,0.71526,-0.1086,-0.68623,-0.72883,-0.93799,-0.61049,0.59756,0.16383,0.52665,0.82776,0.68643,-0.23294,0.35363,-0.07708,-0.6862,-0.32088,0.99401,-0.64693,0.51486,-0.112,-0.88504,0.84248,-0.53791,-0.29031
-0.12417,0.13923,0.64278,-0.75121,0.69933,0.67669,-0.47355,-0.46218,-0.21219,-0.58725,-0.91752,0.080866,0.45616,-0.12238,-0.55175,0.097054,0.43207,-0.65267,-0.8577,-0.91518,-0.80864,-0.72079,-0.019046,0.22951,0.52436,-0.19617,-0.72279,-0.19263,-0.035913,-0.419
0.40302,0.35962,-0.056498,0.23593,-0.15142,-0.46392,0.13466,-0.34718,-0.93765,-0.008289,0.17003,-0.062827,0.95913,0.64265,-0.44622,-0.39162,0.58669,-0.29001,-0.29301,0.47471,-0.19265,-0.27721,-0.2868,0.82507,-0.23657,-0.03211,0.42536,0.48975,0.4224,0.29363
-0.75146,-0.87953,-0.81142,-0.2638,0.18924,-0.70816,0.88434,0.43993,-0.51431,0.96792,-0.22166,-0.63856,0.11599,-0.82842,0.63535,-0.71532,0.57122,0.60254,-0.94596,-0.73391,-0.95402,-0.5869,0.67468,-0.22209,0.99722,0.69273,0.82337,-0.66959,-0.98242,0.074372
0.14525,-0.75784,-0.10764,-0.88209,0.14116,-0.23031,-0.3634,-0.077468,-0.5724,0.6854,0.94238,-0.19132,-0.0044854,-0.24958,0.81767,-0.24441,-0.048408,0.10126,0.58108,0.91877,0.39585,-0.036504,0.11803,-0.34293,-0.1247,-0.19574,0.75808,-0.44182,-0.094918,0.2179
-0.68265,0.88171,-0.76914,-0.47132,-0.13897,-0.58035,-0.79344,0.60952,0.17304,0.078142,0.054736,0.033755,0.70118,0.068492,0.16954,-0.47828,-0.15329,-0.68875,0.80613,-0.16877,0.30499,0.40385,-0.77256,0.61354,-0.63033,0.84395,-0.1131,-0.18221,0.14077,0.082799
-0.55284,0.61805,0.77698,0.56288,0.013134,0.39414,-0.50405,-0.90722,0.089401,-0.68359,0.57649,0.1042,-0.40224,-0.57664,-0.50051,0.29742,0.87186,-0.045546,0.92761,0.16608,0.29723,0.23187,0.72981,0.028057,0.77255,0.42446,0.98282,-0.14454,-0.21538,-0.4718
0.57196,0.33313,-0.83912,-0.15295,0.55269,-0.0032393,-0.28291,0.75776,0.62517,-0.73917,0.54452,-0.25451,-0.89729,0.4558,0.53787,0.49073,0.30488,-0.50669,0.54577,-0.23216,-0.11967,0.11321,-0.73024,-0.62314,0.079732,-0.044032,0.42605,-0.39893,0.47846,0.95101
-0.42965,-0.0059785,-0.87475,0.76426,0.52511,0.88718,0.92333,-0.027504,0.29217,0.53132,-0.52082,-0.59553,0.026097,-0.8872,0.46727,-0.80289,-0.48928,-0.10469,0.16587,0.96239,0.68291,-0.35008,0.32851,0.42791,0.4602,0.29385,-0.23263,0.29087,-0.28739,-0.32976
-0.050791,0.95486,-0.95652,0.38293,0.87455,0.12477,-0.65025,-0.98351,0.73818,0.70975,-0.090052,0.85436,0.93777,0.56859,-0.88221,-0.024962,0.83076,-0.6436,0.63537,-0.67189,-0.52684,0.79465,0.67824,-0.28836,0.88995,-0.040095,0.085119,-0.21772,-0.87178,-0.606
-0.89744,-0.82447,-0.35158,-0.54048,-0.24327,0.23601,-0.27499,-0.27418,-0.89213,-0.71673,0.0057985,-0.12252,-0.52641,0.61094,0.016384,-0.073312,-0.74878,0.91533,0.35379,0.81638,0.3112,-0.80842,-0.31432,0.24682,-0.15759,0.15932,-0.69597,-0.5336,0.24924,-0.010128
-0.86696,0.46512,-0.49731,-0.48927,0.58922,0.95428,-0.7046,-0.026972,0.58521,-0.64316,0.11761,-0.94493,0.081039,0.3853,-0.10996,0.76906,-0.60212,-0.99171,-0.91604,-0.64561,-0.023483,-0.25943,0.96012,-0.17722,0.92101,-0.44673,0.66022,0.81069,0.23685,0.74139
0.35883,-0.73865,-0.77687,-0.13813,-0.63029,0.036895,-0.80564,-0.13608,-0.67223,-0.67257,0.11055,-0.48952,0.10802,-0.10831,-0.80949,0.26718,0.64237,0.15281,-0.081665,-0.84387,-0.28245,-0.14096,0.71652,-0.83068,-0.94512,0.5464,0.77759,0.12124,0.0058953,-0.46056
-0.30029,-0.77879,0.73818,0.19211,-0.0044135,-0.96896,-0.029851,-0.050849,0.80782,-0.051542,0.15198,0.26484,0.22577,-0.48625,0.64995,0.63565,0.76821,-0.47446,-0.47741,-0.15776,-0.87345,-0.29319,-0.15003,-0.092681,0.43548,-0.708,-0.62108,-0.50436,-0.20427,0.84276
-0.97143,0.53667,0.7483,-0.18,0.77868,-0.45112,0.26618,0.53796,0.23686,0.99779,0.34062,-0.85949,0.16646,0.15877,0.25264,-0.95878,0.59981,0.37382,0.10174,-0.71007,-0.90112,0.49172,0.34964,0.6458,0.53691,0.30722,-0.21432,0.65249,0.076577,-0.13108
0.93604,0.48931,-0.73356,-0.46105,-0.65129,0.042079,0.6755,0.071253,-0.69627,-0.50041,-0.12949,0.27766,-0.58593,0.42538,-0.51605,-0.5294,-0.29979,-0.068201,0.44366,-0.78108,-0.031847,0.54018,0.99949,0.66783,-0.23719,-0.35543,-0.2869,-0.69154,0.79372,0.67349
0.15704,-0.54966,-0.35828,0.77234,0.43556,-0.2086,-0.58692,-0.19084,0.074288,0.45909,-0.48862,0.79851,0.35693,0.58194,0.35562,0.59856,-0.90962,0.73891,0.15969,-0.61082,-0.10002,-0.83643,-0.77796,0.77783,0.93515,-0.51109,-0.62652,0.89715,0.46306,0.88289
0.86878,-0.43094,-0.46874,0.20232,-0.47603,0.078729,0.90841,0.41218,0.89079,0.23872,0.90819,-0.34622,0.38156,-0.2437,0.087573,0.68688,-0.35994,-0.67425,0.85753,0.16866,-0.70642,0.19065,0.41988,0.99232,0.68924,0.89233,-0.26961,0.98768,-0.51012,0.43365
0.48646,-0.65817,0.79482,-0.66499,-0.75711,0.019518,0.37873,-0.59058,-0.55141,0.70858,0.84677,-0.2949,-0.83818,-0.70307,-0.92961,0.941,-0.32091,0.45884,0.41553,0.099898,-0.63063,-0.64553,0.093531,-0.59895,-0.85992,0.10436,0.7272,0.054338,0.68736,0.3571
0.72259,-0.85191,-0.69912,0.031387,0.86121,-0.39264,0.30102,0.80281,-0.65229,0.16714,-0.87542,0.56485,-0.73841,0.13373,-0.55108,0.66498,-0.47044,-0.97492,-0.63451,0.0414,0.70483,0.10424,0.59679,0.61431,-0.38661,-0.24433,0.73757,-0.23364,0.65285,0.18722
0.33032,-0.81914,0.20744,-0.35381,0.11889,0.81279,0.22875,0.76749,-0.16901,-0.51087,-0.94455,0.19818,-0.54018,0.98861,0.6191,0.33452,0.95823,-0.81805,-0.26873,-0.34518,-0.54219,0.51906,0.74724,0.82988,0.94434,-0.91658,0.39106,-0.29849,-0.58594,0.36133
0.72472,-0.16224,-0.58718,-0.9933,0.96778,0.43992,-0.22921,0.68751,-0.50804,0.65024,0.19387,0.59479,0.43482,0.60803,-0.66265,-0.53201,-0.16169,-0.92936,-0.67398,0.67023,0.48532,0.2596,-0.77506,-0.43625,-0.70278,0.40323,0.68177,-0.76669,-0.12852,-0.22932
-0.54827,0.49597,-0.97273,0.071435,-0.76107,-0.89597,-0.37558,0.8829,0.39206,0.38865,0.80401,-0.40374,-0.12122,0.62868,0.93588,-0.12257,0.39256,0.69254,-0.47007,0.055851,0.26141,0.94336,-0.75742,0.4562,-0.88617,-0.80446,-0.63721,-0.70216,-0.37488,-0.20602
-0.41227,-0.27933,0.43593,-0.32728,-0.52813,0.35203,0.13016,-0.089475,0.98639,0.35047,-0.25922,-0.069851,0.067077,-0.94662,0.75333,-0.25047,0.9379,-0.84575,-0.7867,0.64769,0.72693,0.077956,-0.98766,-0.82091,-0.023934,0.52052,-0.7463,-0.43794,-0.069193,0.87191
0.68298,0.32983,-0.11458,-0.090148,0.088819,-0.37602,0.50265,-0.83234,-0.51962,0.54549,-0.84212,0.66646,0.85879,-0.19973,-0.67818,0.98531,-0.78219,0.58318,0.51165,0.25838,-0.59168,-0.6098,-0.37065,0.76684,-0.92012,-0.79997,-0.35286,-0.6425,-0.33755,0.12973
-0.54821,-0.63323,-0.92623,0.85021,-0.65719,0.46014,0.84892,-0.52836,0.062709,0.081035,-0.44259,0.9784,0.53482,0.1432,-0.064738,0.41871,0.13485,0.56399,0.0934,-0.54849,-0.2616,0.18477,-0.87007,0.76107,-0.62098,-0.072062,-0.7549,-0.29615,0.1697,-0.54474
-0.59438,0.18928,-0.55928,-0.13425,0.22085,0.8935,0.32145,-0.56173,-0.3457,-0.16001,-0.073037,0.54639,0.55024,0.21923,0.67918,0.45491,-0.24902,0.16322,0.13081,-0.68006,0.58668,-0.72803,-0.66864,0.89944,0.74751,-0.76586,-0.049976,-0.24167,0.26825,0.12115
-0.38414,-0.80332,-0.40627,0.79956,-0.67893,-0.17017,0.63736,-0.12224,-0.81124,0.59984,-0.60118,0.95509,-0.27331,-0.48339,-0.75968,0.66266,0.88145,-0.52027,0.4831,-0.96126,-0.43045,0.54166,-0.72565,0.59952,-0.10482,-0.21719,0.2606,0.059808,0.38573,0.70849
0.13,-0.75035,0.18728,-0.8684,0.19467,-0.3473,-0.97799,-0.55769,0.078034,-0.11619,0.80263,0.5876,-0.14328,-0.19727,-0.65988,-0.23147,-0.41644,-0.91562,0.44557,0.91028,-0.63852,-0.62982,0.2694,-0.15144,0.90177,-0.35098,0.53019,-0.36321,-0.24868,-0.052671
-0.48432,0.030446,0.37161,0.99758,0.17177,-0.45922,0.51402,0.034119,0.90153,0.84451,-0.84009,-0.23834,0.16318,-0.11716,0.46568,-0.69061,-0.072927,0.075706,-0.57656,-0.78638,0.63397,0.12026,0.75893,-0.62531,-0.55564,0.30055,-0.2434,0.13133,-0.049612,0.47708
0.0090171,-0.023098,-0.49743,-0.58631,0.8567,-0.26574,-0.73152,0.66298,-0.43923,0.7329,-0.10337,0.53551,-0.38161,0.81628,0.95798,0.63995,-0.020684,-0.90497,-0.71419,-0.45957,-0.70952,0.46175,-0.65522,0.65987,-0.55722,0.84813,0.27716,0.32932,0.15913,0.32614
0.80611,-0.21835,0.86271,-0.54902,0.36708,0.98892,0.13116,0.045786,0.69561,0.23795,-0.77231,-0.15865,-0.20615,-0.65344,0.13542,-0.23565,0.97291,0.083619,-0.04158,-0.41069,-0.71481,-0.18387,0.79812,0.71402,-0.82304,0.47867,0.80512,0.50829,0.8885,0.51743
-0.021748,0.68993,-0.50834,-0.19454,-0.33381,-0.076551,0.51075,-0.02598,-0.76573,-0.43408,0.62861,0.19958,0.76649,0.24529,0.59182,-0.7624,0.77161,0.17529,0.85191,0.30836,0.44861,0.83398,-0.47977,0.73185,0.1858,-0.42506,0.89031,0.51842,-0.63206,-0.70822
-0.097466,0.54328,-0.69938,-0.64217,-0.16881,0.67091,-0.8588,0.82338,-0.90362,0.51169,-0.70335,-0.14157,-0.90847,-0.30769,-0.56355,-0.69154,-0.26431,-0.40239,0.31481,-0.38837,0.10013,0.46009,-0.050717,-0.65952,0.15794,-0.61864,0.46789,0.69397,-0.43243,0.15458
0.089273,-0.60471,-0.97451,-0.82887,-0.26561,0.87475,-0.44068,-0.80967,-0.84649,0.74375,-0.047789,0.85983,-0.27569,-0.39006,-0.16069,0.14975,0.72368,-0.26105,-0.16197,0.55594,0.88725,0.56277,0.34819,0.3871,0.61467,-0.85879,0.90097,0.4135,0.16327,0.83993
-0.87799,-0.03416,0.14021,0.39959,0.1829,0.37182,-0.71534,-0.29883,0.71198,-0.58554,0.066157,-0.71873,-0.64032,-0.72136,0.26762,-0.61792,0.61266,-0.010445,0.93366,-0.017997,0.88301,0.70335,0.38936,0.47685,0.56294,-0.48254,-0.85296,0.55668,0.070786,0.95132
0.094451,0.6645,-0.087221,0.66082,0.24662,0.95735,0.89178,-0.4032,0.46604,0.36585,-0.69499,-0.48061,0.38177,-0.84654,-0.78285,-0.8449,-0.28262,-0.089759,0.15749,0.4146,-0.29728,-0.39469,0.96857,0.52717,-0.92055,0.65296,0.93259,-0.64947,0.022287,0.32396
0.97275,-0.85103,-0.42549,-0.087305,0.46786,-0.21573,-0.89501,-0.67936,0.37319,-0.57124,-0.83192,0.86426,-0.39329,0.90512,0.79113,-0.096425,0.973,0.41945,0.032446,0.38128,-0.4001,0.082749,-0.13389,0.26235,-0.63103,0.37265,0.025542,0.63187,0.87845,0.0090188
-0.026972,-0.18375,-0.071692,-0.33009,0.4872,0.55399,0.78366,0.14308,0.96834,-0.9179,-0.20305,0.71938,0.67665,-0.55164,-0.095652,0.79201,-0.30652,-0.4112,0.42948,0.58148,0.95655,0.74554,0.80329,0.48404,0.3485,0.44607,-0.012861,-0.19878,-0.021647,-0.81038
0.58904,-0.31394,0.61535,-0.78203,0.19467,-0.23488,0.70269,0.36688,0.96396,0.71676,0.42854,0.13655,0.078476,-0.46062,-0.43163,-0.78872,0.65182,-0.25503,-0.33238,-0.4744,0.93557,-0.46328,-0.64759,-0.20149,-0.66103,0.58276,-0.46963,-0.35864,-0.51479,0.60155
0.94651,0.25235,0.16329,-0.5233,-0.45532,-0.34128,0.062749,-0.82447,0.29586,0.045131,0.97933,0.48956,-0.65986,-0.44514,-0.29137,-0.36552,0.051374,0.56182,-0.34262,-0.16754,0.49125,-0.89731,-0.77509,-0.94779,0.059908,0.28256,-0.58401,-0.87259,-0.28595,0.18801
0.40566,-0.7424,-0.080443,0.034696,0.073846,0.46512,0.80787,-0.10927,-0.1898,0.09868,0.84185,-0.85054,0.81262,0.8556,-0.31467,0.80012,0.46702,-0.72298,0.72025,0.71981,0.13893,-0.66815,-0.06658,0.19488,0.030998,-0.21667,0.14649,0.5834,-0.81005,0.89332
